Sept. 26, 2024   14:49:12
Cyclic Voltammetry
File: c:\users\secm\desktop\data\lmxlm2\+12 2319-1\26-09-2024 - lamp inside cage\region 2\+12 2319-1 fto cv_cells_light_surface_20_3.csv
Data Source:  Experiment
Instrument Model:  CHI920C
Ref. Electrode: 
Header: 
Note: 

Init E (V) = -0.5
High E (V) = 0.5
Low E (V) = -0.5
Init P/N = P
Scan Rate (V/s) = 0.05
Segment = 2
Sample Interval (V) = 0.001
Quiet Time (sec) = 10
Sensitivity (A/V) = 1e-7

Results:

Channel 1:
Segment 1:
Ep = 0.137V
ip = 1.701e-9A
Ah = 2.529e-9C

Segment 2:

Potential/V, Current/A

-0.500, -2.173e-9
-0.499, -2.071e-9
-0.498, -2.013e-9
-0.497, -1.970e-9
-0.496, -1.934e-9
-0.495, -1.905e-9
-0.494, -1.877e-9
-0.493, -1.849e-9
-0.492, -1.823e-9
-0.491, -1.800e-9
-0.490, -1.782e-9
-0.489, -1.762e-9
-0.488, -1.739e-9
-0.487, -1.719e-9
-0.486, -1.700e-9
-0.485, -1.681e-9
-0.484, -1.664e-9
-0.483, -1.648e-9
-0.482, -1.633e-9
-0.481, -1.619e-9
-0.480, -1.603e-9
-0.479, -1.588e-9
-0.478, -1.573e-9
-0.477, -1.558e-9
-0.476, -1.544e-9
-0.475, -1.531e-9
-0.474, -1.516e-9
-0.473, -1.503e-9
-0.472, -1.485e-9
-0.471, -1.469e-9
-0.470, -1.456e-9
-0.469, -1.443e-9
-0.468, -1.430e-9
-0.467, -1.417e-9
-0.466, -1.406e-9
-0.465, -1.394e-9
-0.464, -1.382e-9
-0.463, -1.371e-9
-0.462, -1.359e-9
-0.461, -1.347e-9
-0.460, -1.336e-9
-0.459, -1.324e-9
-0.458, -1.314e-9
-0.457, -1.303e-9
-0.456, -1.293e-9
-0.455, -1.283e-9
-0.454, -1.272e-9
-0.453, -1.259e-9
-0.452, -1.247e-9
-0.451, -1.236e-9
-0.450, -1.224e-9
-0.449, -1.214e-9
-0.448, -1.203e-9
-0.447, -1.193e-9
-0.446, -1.184e-9
-0.445, -1.175e-9
-0.444, -1.164e-9
-0.443, -1.156e-9
-0.442, -1.146e-9
-0.441, -1.135e-9
-0.440, -1.125e-9
-0.439, -1.115e-9
-0.438, -1.107e-9
-0.437, -1.097e-9
-0.436, -1.088e-9
-0.435, -1.081e-9
-0.434, -1.071e-9
-0.433, -1.062e-9
-0.432, -1.055e-9
-0.431, -1.046e-9
-0.430, -1.036e-9
-0.429, -1.027e-9
-0.428, -1.017e-9
-0.427, -1.007e-9
-0.426, -9.967e-10
-0.425, -9.869e-10
-0.424, -9.768e-10
-0.423, -9.669e-10
-0.422, -9.602e-10
-0.421, -9.502e-10
-0.420, -9.422e-10
-0.419, -9.353e-10
-0.418, -9.255e-10
-0.417, -9.182e-10
-0.416, -9.101e-10
-0.415, -8.996e-10
-0.414, -8.912e-10
-0.413, -8.851e-10
-0.412, -8.757e-10
-0.411, -8.666e-10
-0.410, -8.597e-10
-0.409, -8.527e-10
-0.408, -8.436e-10
-0.407, -8.356e-10
-0.406, -8.293e-10
-0.405, -8.226e-10
-0.404, -8.156e-10
-0.403, -8.096e-10
-0.402, -8.006e-10
-0.401, -7.930e-10
-0.400, -7.861e-10
-0.399, -7.767e-10
-0.398, -7.703e-10
-0.397, -7.625e-10
-0.396, -7.546e-10
-0.395, -7.449e-10
-0.394, -7.368e-10
-0.393, -7.304e-10
-0.392, -7.219e-10
-0.391, -7.122e-10
-0.390, -7.049e-10
-0.389, -6.975e-10
-0.388, -6.909e-10
-0.387, -6.847e-10
-0.386, -6.778e-10
-0.385, -6.708e-10
-0.384, -6.639e-10
-0.383, -6.561e-10
-0.382, -6.476e-10
-0.381, -6.396e-10
-0.380, -6.324e-10
-0.379, -6.251e-10
-0.378, -6.171e-10
-0.377, -6.117e-10
-0.376, -6.045e-10
-0.375, -5.975e-10
-0.374, -5.923e-10
-0.373, -5.842e-10
-0.372, -5.769e-10
-0.371, -5.719e-10
-0.370, -5.641e-10
-0.369, -5.564e-10
-0.368, -5.499e-10
-0.367, -5.419e-10
-0.366, -5.347e-10
-0.365, -5.274e-10
-0.364, -5.189e-10
-0.363, -5.109e-10
-0.362, -5.029e-10
-0.361, -4.961e-10
-0.360, -4.880e-10
-0.359, -4.808e-10
-0.358, -4.736e-10
-0.357, -4.665e-10
-0.356, -4.591e-10
-0.355, -4.541e-10
-0.354, -4.459e-10
-0.353, -4.406e-10
-0.352, -4.334e-10
-0.351, -4.262e-10
-0.350, -4.197e-10
-0.349, -4.127e-10
-0.348, -4.061e-10
-0.347, -3.991e-10
-0.346, -3.926e-10
-0.345, -3.882e-10
-0.344, -3.809e-10
-0.343, -3.724e-10
-0.342, -3.684e-10
-0.341, -3.610e-10
-0.340, -3.552e-10
-0.339, -3.487e-10
-0.338, -3.425e-10
-0.337, -3.371e-10
-0.336, -3.318e-10
-0.335, -3.266e-10
-0.334, -3.207e-10
-0.333, -3.151e-10
-0.332, -3.087e-10
-0.331, -3.020e-10
-0.330, -2.928e-10
-0.329, -2.873e-10
-0.328, -2.798e-10
-0.327, -2.713e-10
-0.326, -2.652e-10
-0.325, -2.576e-10
-0.324, -2.489e-10
-0.323, -2.461e-10
-0.322, -2.395e-10
-0.321, -2.318e-10
-0.320, -2.251e-10
-0.319, -2.189e-10
-0.318, -2.117e-10
-0.317, -2.056e-10
-0.316, -1.986e-10
-0.315, -1.924e-10
-0.314, -1.862e-10
-0.313, -1.795e-10
-0.312, -1.742e-10
-0.311, -1.670e-10
-0.310, -1.617e-10
-0.309, -1.549e-10
-0.308, -1.509e-10
-0.307, -1.389e-10
-0.306, -1.333e-10
-0.305, -1.300e-10
-0.304, -1.242e-10
-0.303, -1.172e-10
-0.302, -1.124e-10
-0.301, -1.059e-10
-0.300, -1.006e-10
-0.299, -9.471e-11
-0.298, -9.003e-11
-0.297, -8.380e-11
-0.296, -7.658e-11
-0.295, -7.122e-11
-0.294, -6.625e-11
-0.293, -5.933e-11
-0.292, -5.250e-11
-0.291, -4.626e-11
-0.290, -3.983e-11
-0.289, -3.466e-11
-0.288, -2.833e-11
-0.287, -2.053e-11
-0.286, -1.458e-11
-0.285, -8.344e-12
-0.284, -3.509e-13
-0.283, 5.498e-12
-0.282, 1.310e-11
-0.281, 1.856e-11
-0.280, 2.285e-11
-0.279, 2.967e-11
-0.278, 3.357e-11
-0.277, 4.059e-11
-0.276, 4.615e-11
-0.275, 5.287e-11
-0.274, 5.765e-11
-0.273, 6.301e-11
-0.272, 6.818e-11
-0.271, 7.539e-11
-0.270, 8.085e-11
-0.269, 8.738e-11
-0.268, 9.284e-11
-0.267, 9.869e-11
-0.266, 1.047e-10
-0.265, 1.105e-10
-0.264, 1.160e-10
-0.263, 1.222e-10
-0.262, 1.269e-10
-0.261, 1.312e-10
-0.260, 1.370e-10
-0.259, 1.418e-10
-0.258, 1.474e-10
-0.257, 1.527e-10
-0.256, 1.564e-10
-0.255, 1.617e-10
-0.254, 1.667e-10
-0.253, 1.726e-10
-0.252, 1.766e-10
-0.251, 1.821e-10
-0.250, 1.874e-10
-0.249, 1.948e-10
-0.248, 2.007e-10
-0.247, 2.073e-10
-0.246, 2.130e-10
-0.245, 2.191e-10
-0.244, 2.248e-10
-0.243, 2.307e-10
-0.242, 2.376e-10
-0.241, 2.439e-10
-0.240, 2.484e-10
-0.239, 2.532e-10
-0.238, 2.601e-10
-0.237, 2.667e-10
-0.236, 2.731e-10
-0.235, 2.785e-10
-0.234, 2.832e-10
-0.233, 2.881e-10
-0.232, 2.937e-10
-0.231, 2.987e-10
-0.230, 3.037e-10
-0.229, 3.082e-10
-0.228, 3.149e-10
-0.227, 3.183e-10
-0.226, 3.248e-10
-0.225, 3.292e-10
-0.224, 3.350e-10
-0.223, 3.408e-10
-0.222, 3.474e-10
-0.221, 3.518e-10
-0.220, 3.573e-10
-0.219, 3.624e-10
-0.218, 3.693e-10
-0.217, 3.728e-10
-0.216, 3.789e-10
-0.215, 3.837e-10
-0.214, 3.884e-10
-0.213, 3.936e-10
-0.212, 3.991e-10
-0.211, 4.042e-10
-0.210, 4.096e-10
-0.209, 4.145e-10
-0.208, 4.197e-10
-0.207, 4.266e-10
-0.206, 4.313e-10
-0.205, 4.346e-10
-0.204, 4.382e-10
-0.203, 4.463e-10
-0.202, 4.536e-10
-0.201, 4.586e-10
-0.200, 4.650e-10
-0.199, 4.738e-10
-0.198, 4.786e-10
-0.197, 4.860e-10
-0.196, 4.935e-10
-0.195, 4.987e-10
-0.194, 5.055e-10
-0.193, 5.108e-10
-0.192, 5.150e-10
-0.191, 5.207e-10
-0.190, 5.269e-10
-0.189, 5.316e-10
-0.188, 5.377e-10
-0.187, 5.427e-10
-0.186, 5.470e-10
-0.185, 5.518e-10
-0.184, 5.579e-10
-0.183, 5.626e-10
-0.182, 5.694e-10
-0.181, 5.757e-10
-0.180, 5.808e-10
-0.179, 5.861e-10
-0.178, 5.909e-10
-0.177, 5.974e-10
-0.176, 6.008e-10
-0.175, 6.069e-10
-0.174, 6.113e-10
-0.173, 6.172e-10
-0.172, 6.228e-10
-0.171, 6.268e-10
-0.170, 6.316e-10
-0.169, 6.357e-10
-0.168, 6.406e-10
-0.167, 6.463e-10
-0.166, 6.510e-10
-0.165, 6.572e-10
-0.164, 6.623e-10
-0.163, 6.666e-10
-0.162, 6.720e-10
-0.161, 6.769e-10
-0.160, 6.823e-10
-0.159, 6.894e-10
-0.158, 6.956e-10
-0.157, 7.005e-10
-0.156, 7.052e-10
-0.155, 7.108e-10
-0.154, 7.161e-10
-0.153, 7.208e-10
-0.152, 7.273e-10
-0.151, 7.328e-10
-0.150, 7.375e-10
-0.149, 7.442e-10
-0.148, 7.496e-10
-0.147, 7.541e-10
-0.146, 7.604e-10
-0.145, 7.647e-10
-0.144, 7.697e-10
-0.143, 7.754e-10
-0.142, 7.799e-10
-0.141, 7.834e-10
-0.140, 7.894e-10
-0.139, 7.949e-10
-0.138, 8.006e-10
-0.137, 8.057e-10
-0.136, 8.114e-10
-0.135, 8.186e-10
-0.134, 8.244e-10
-0.133, 8.294e-10
-0.132, 8.343e-10
-0.131, 8.389e-10
-0.130, 8.446e-10
-0.129, 8.500e-10
-0.128, 8.560e-10
-0.127, 8.626e-10
-0.126, 8.678e-10
-0.125, 8.736e-10
-0.124, 8.798e-10
-0.123, 8.864e-10
-0.122, 8.917e-10
-0.121, 8.966e-10
-0.120, 9.023e-10
-0.119, 9.085e-10
-0.118, 9.123e-10
-0.117, 9.179e-10
-0.116, 9.247e-10
-0.115, 9.298e-10
-0.114, 9.380e-10
-0.113, 9.441e-10
-0.112, 9.502e-10
-0.111, 9.553e-10
-0.110, 9.602e-10
-0.109, 9.672e-10
-0.108, 9.712e-10
-0.107, 9.771e-10
-0.106, 9.840e-10
-0.105, 9.890e-10
-0.104, 9.955e-10
-0.103, 1.002e-9
-0.102, 1.013e-9
-0.101, 1.016e-9
-0.100, 1.022e-9
-0.099, 1.026e-9
-0.098, 1.031e-9
-0.097, 1.038e-9
-0.096, 1.044e-9
-0.095, 1.051e-9
-0.094, 1.055e-9
-0.093, 1.061e-9
-0.092, 1.067e-9
-0.091, 1.074e-9
-0.090, 1.080e-9
-0.089, 1.085e-9
-0.088, 1.091e-9
-0.087, 1.098e-9
-0.086, 1.103e-9
-0.085, 1.109e-9
-0.084, 1.115e-9
-0.083, 1.121e-9
-0.082, 1.128e-9
-0.081, 1.135e-9
-0.080, 1.139e-9
-0.079, 1.145e-9
-0.078, 1.152e-9
-0.077, 1.159e-9
-0.076, 1.165e-9
-0.075, 1.171e-9
-0.074, 1.179e-9
-0.073, 1.186e-9
-0.072, 1.194e-9
-0.071, 1.202e-9
-0.070, 1.208e-9
-0.069, 1.216e-9
-0.068, 1.223e-9
-0.067, 1.229e-9
-0.066, 1.236e-9
-0.065, 1.242e-9
-0.064, 1.247e-9
-0.063, 1.255e-9
-0.062, 1.262e-9
-0.061, 1.269e-9
-0.060, 1.276e-9
-0.059, 1.283e-9
-0.058, 1.291e-9
-0.057, 1.298e-9
-0.056, 1.305e-9
-0.055, 1.314e-9
-0.054, 1.320e-9
-0.053, 1.329e-9
-0.052, 1.338e-9
-0.051, 1.343e-9
-0.050, 1.351e-9
-0.049, 1.359e-9
-0.048, 1.367e-9
-0.047, 1.375e-9
-0.046, 1.383e-9
-0.045, 1.392e-9
-0.044, 1.401e-9
-0.043, 1.409e-9
-0.042, 1.417e-9
-0.041, 1.425e-9
-0.040, 1.433e-9
-0.039, 1.442e-9
-0.038, 1.449e-9
-0.037, 1.457e-9
-0.036, 1.465e-9
-0.035, 1.472e-9
-0.034, 1.482e-9
-0.033, 1.491e-9
-0.032, 1.500e-9
-0.031, 1.508e-9
-0.030, 1.516e-9
-0.029, 1.524e-9
-0.028, 1.532e-9
-0.027, 1.539e-9
-0.026, 1.547e-9
-0.025, 1.554e-9
-0.024, 1.565e-9
-0.023, 1.576e-9
-0.022, 1.584e-9
-0.021, 1.594e-9
-0.020, 1.603e-9
-0.019, 1.612e-9
-0.018, 1.621e-9
-0.017, 1.630e-9
-0.016, 1.638e-9
-0.015, 1.648e-9
-0.014, 1.658e-9
-0.013, 1.668e-9
-0.012, 1.677e-9
-0.011, 1.688e-9
-0.010, 1.699e-9
-0.009, 1.707e-9
-0.008, 1.718e-9
-0.007, 1.728e-9
-0.006, 1.739e-9
-0.005, 1.748e-9
-0.004, 1.758e-9
-0.003, 1.767e-9
-0.002, 1.779e-9
-0.001, 1.787e-9
0.000, 1.795e-9
0.001, 1.804e-9
0.002, 1.817e-9
0.003, 1.829e-9
0.004, 1.842e-9
0.005, 1.853e-9
0.006, 1.866e-9
0.007, 1.877e-9
0.008, 1.888e-9
0.009, 1.899e-9
0.010, 1.910e-9
0.011, 1.922e-9
0.012, 1.934e-9
0.013, 1.946e-9
0.014, 1.958e-9
0.015, 1.969e-9
0.016, 1.981e-9
0.017, 1.993e-9
0.018, 2.005e-9
0.019, 2.018e-9
0.020, 2.030e-9
0.021, 2.041e-9
0.022, 2.053e-9
0.023, 2.064e-9
0.024, 2.077e-9
0.025, 2.089e-9
0.026, 2.100e-9
0.027, 2.112e-9
0.028, 2.125e-9
0.029, 2.137e-9
0.030, 2.151e-9
0.031, 2.166e-9
0.032, 2.180e-9
0.033, 2.196e-9
0.034, 2.209e-9
0.035, 2.223e-9
0.036, 2.236e-9
0.037, 2.249e-9
0.038, 2.264e-9
0.039, 2.276e-9
0.040, 2.291e-9
0.041, 2.306e-9
0.042, 2.321e-9
0.043, 2.336e-9
0.044, 2.353e-9
0.045, 2.368e-9
0.046, 2.384e-9
0.047, 2.400e-9
0.048, 2.415e-9
0.049, 2.432e-9
0.050, 2.446e-9
0.051, 2.461e-9
0.052, 2.477e-9
0.053, 2.494e-9
0.054, 2.512e-9
0.055, 2.529e-9
0.056, 2.547e-9
0.057, 2.565e-9
0.058, 2.583e-9
0.059, 2.599e-9
0.060, 2.612e-9
0.061, 2.630e-9
0.062, 2.652e-9
0.063, 2.672e-9
0.064, 2.691e-9
0.065, 2.711e-9
0.066, 2.730e-9
0.067, 2.751e-9
0.068, 2.772e-9
0.069, 2.792e-9
0.070, 2.812e-9
0.071, 2.831e-9
0.072, 2.852e-9
0.073, 2.872e-9
0.074, 2.893e-9
0.075, 2.915e-9
0.076, 2.937e-9
0.077, 2.956e-9
0.078, 2.978e-9
0.079, 3.001e-9
0.080, 3.022e-9
0.081, 3.047e-9
0.082, 3.068e-9
0.083, 3.089e-9
0.084, 3.111e-9
0.085, 3.138e-9
0.086, 3.164e-9
0.087, 3.188e-9
0.088, 3.214e-9
0.089, 3.236e-9
0.090, 3.259e-9
0.091, 3.285e-9
0.092, 3.309e-9
0.093, 3.332e-9
0.094, 3.356e-9
0.095, 3.379e-9
0.096, 3.406e-9
0.097, 3.432e-9
0.098, 3.457e-9
0.099, 3.482e-9
0.100, 3.505e-9
0.101, 3.530e-9
0.102, 3.555e-9
0.103, 3.583e-9
0.104, 3.604e-9
0.105, 3.631e-9
0.106, 3.655e-9
0.107, 3.680e-9
0.108, 3.702e-9
0.109, 3.723e-9
0.110, 3.748e-9
0.111, 3.769e-9
0.112, 3.791e-9
0.113, 3.809e-9
0.114, 3.830e-9
0.115, 3.852e-9
0.116, 3.872e-9
0.117, 3.892e-9
0.118, 3.910e-9
0.119, 3.924e-9
0.120, 3.941e-9
0.121, 3.960e-9
0.122, 3.977e-9
0.123, 3.993e-9
0.124, 4.008e-9
0.125, 4.022e-9
0.126, 4.035e-9
0.127, 4.046e-9
0.128, 4.058e-9
0.129, 4.068e-9
0.130, 4.075e-9
0.131, 4.085e-9
0.132, 4.092e-9
0.133, 4.099e-9
0.134, 4.106e-9
0.135, 4.111e-9
0.136, 4.113e-9
0.137, 4.115e-9
0.138, 4.115e-9
0.139, 4.113e-9
0.140, 4.109e-9
0.141, 4.101e-9
0.142, 4.095e-9
0.143, 4.088e-9
0.144, 4.080e-9
0.145, 4.073e-9
0.146, 4.063e-9
0.147, 4.055e-9
0.148, 4.045e-9
0.149, 4.036e-9
0.150, 4.026e-9
0.151, 4.015e-9
0.152, 4.006e-9
0.153, 3.999e-9
0.154, 3.988e-9
0.155, 3.980e-9
0.156, 3.974e-9
0.157, 3.965e-9
0.158, 3.958e-9
0.159, 3.951e-9
0.160, 3.946e-9
0.161, 3.941e-9
0.162, 3.936e-9
0.163, 3.931e-9
0.164, 3.927e-9
0.165, 3.924e-9
0.166, 3.922e-9
0.167, 3.917e-9
0.168, 3.917e-9
0.169, 3.914e-9
0.170, 3.913e-9
0.171, 3.914e-9
0.172, 3.913e-9
0.173, 3.913e-9
0.174, 3.913e-9
0.175, 3.913e-9
0.176, 3.912e-9
0.177, 3.913e-9
0.178, 3.914e-9
0.179, 3.915e-9
0.180, 3.918e-9
0.181, 3.919e-9
0.182, 3.921e-9
0.183, 3.922e-9
0.184, 3.925e-9
0.185, 3.929e-9
0.186, 3.932e-9
0.187, 3.936e-9
0.188, 3.939e-9
0.189, 3.940e-9
0.190, 3.944e-9
0.191, 3.946e-9
0.192, 3.951e-9
0.193, 3.955e-9
0.194, 3.958e-9
0.195, 3.964e-9
0.196, 3.966e-9
0.197, 3.971e-9
0.198, 3.977e-9
0.199, 3.982e-9
0.200, 3.986e-9
0.201, 3.992e-9
0.202, 3.994e-9
0.203, 4.000e-9
0.204, 4.007e-9
0.205, 4.004e-9
0.206, 4.012e-9
0.207, 4.018e-9
0.208, 4.025e-9
0.209, 4.028e-9
0.210, 4.033e-9
0.211, 4.039e-9
0.212, 4.044e-9
0.213, 4.050e-9
0.214, 4.055e-9
0.215, 4.059e-9
0.216, 4.066e-9
0.217, 4.071e-9
0.218, 4.073e-9
0.219, 4.079e-9
0.220, 4.086e-9
0.221, 4.092e-9
0.222, 4.098e-9
0.223, 4.105e-9
0.224, 4.111e-9
0.225, 4.120e-9
0.226, 4.126e-9
0.227, 4.134e-9
0.228, 4.139e-9
0.229, 4.147e-9
0.230, 4.151e-9
0.231, 4.157e-9
0.232, 4.164e-9
0.233, 4.170e-9
0.234, 4.175e-9
0.235, 4.182e-9
0.236, 4.189e-9
0.237, 4.194e-9
0.238, 4.202e-9
0.239, 4.209e-9
0.240, 4.215e-9
0.241, 4.221e-9
0.242, 4.226e-9
0.243, 4.231e-9
0.244, 4.237e-9
0.245, 4.245e-9
0.246, 4.251e-9
0.247, 4.256e-9
0.248, 4.261e-9
0.249, 4.269e-9
0.250, 4.275e-9
0.251, 4.281e-9
0.252, 4.287e-9
0.253, 4.291e-9
0.254, 4.298e-9
0.255, 4.305e-9
0.256, 4.310e-9
0.257, 4.315e-9
0.258, 4.323e-9
0.259, 4.328e-9
0.260, 4.337e-9
0.261, 4.342e-9
0.262, 4.348e-9
0.263, 4.354e-9
0.264, 4.362e-9
0.265, 4.368e-9
0.266, 4.372e-9
0.267, 4.381e-9
0.268, 4.389e-9
0.269, 4.392e-9
0.270, 4.402e-9
0.271, 4.408e-9
0.272, 4.413e-9
0.273, 4.419e-9
0.274, 4.425e-9
0.275, 4.433e-9
0.276, 4.437e-9
0.277, 4.446e-9
0.278, 4.453e-9
0.279, 4.457e-9
0.280, 4.464e-9
0.281, 4.472e-9
0.282, 4.478e-9
0.283, 4.483e-9
0.284, 4.491e-9
0.285, 4.496e-9
0.286, 4.503e-9
0.287, 4.511e-9
0.288, 4.518e-9
0.289, 4.526e-9
0.290, 4.531e-9
0.291, 4.538e-9
0.292, 4.544e-9
0.293, 4.550e-9
0.294, 4.555e-9
0.295, 4.561e-9
0.296, 4.568e-9
0.297, 4.573e-9
0.298, 4.578e-9
0.299, 4.584e-9
0.300, 4.593e-9
0.301, 4.601e-9
0.302, 4.607e-9
0.303, 4.614e-9
0.304, 4.620e-9
0.305, 4.628e-9
0.306, 4.635e-9
0.307, 4.646e-9
0.308, 4.659e-9
0.309, 4.658e-9
0.310, 4.662e-9
0.311, 4.666e-9
0.312, 4.672e-9
0.313, 4.678e-9
0.314, 4.685e-9
0.315, 4.691e-9
0.316, 4.696e-9
0.317, 4.704e-9
0.318, 4.709e-9
0.319, 4.716e-9
0.320, 4.723e-9
0.321, 4.730e-9
0.322, 4.735e-9
0.323, 4.740e-9
0.324, 4.746e-9
0.325, 4.752e-9
0.326, 4.759e-9
0.327, 4.764e-9
0.328, 4.770e-9
0.329, 4.776e-9
0.330, 4.780e-9
0.331, 4.787e-9
0.332, 4.793e-9
0.333, 4.798e-9
0.334, 4.803e-9
0.335, 4.809e-9
0.336, 4.814e-9
0.337, 4.821e-9
0.338, 4.827e-9
0.339, 4.834e-9
0.340, 4.841e-9
0.341, 4.846e-9
0.342, 4.852e-9
0.343, 4.855e-9
0.344, 4.863e-9
0.345, 4.870e-9
0.346, 4.873e-9
0.347, 4.878e-9
0.348, 4.885e-9
0.349, 4.889e-9
0.350, 4.895e-9
0.351, 4.901e-9
0.352, 4.906e-9
0.353, 4.912e-9
0.354, 4.916e-9
0.355, 4.921e-9
0.356, 4.927e-9
0.357, 4.931e-9
0.358, 4.935e-9
0.359, 4.938e-9
0.360, 4.946e-9
0.361, 4.952e-9
0.362, 4.953e-9
0.363, 4.960e-9
0.364, 4.966e-9
0.365, 4.970e-9
0.366, 4.976e-9
0.367, 4.981e-9
0.368, 4.986e-9
0.369, 4.992e-9
0.370, 4.997e-9
0.371, 4.999e-9
0.372, 5.004e-9
0.373, 5.009e-9
0.374, 5.014e-9
0.375, 5.019e-9
0.376, 5.024e-9
0.377, 5.030e-9
0.378, 5.032e-9
0.379, 5.037e-9
0.380, 5.042e-9
0.381, 5.044e-9
0.382, 5.049e-9
0.383, 5.055e-9
0.384, 5.059e-9
0.385, 5.064e-9
0.386, 5.067e-9
0.387, 5.072e-9
0.388, 5.076e-9
0.389, 5.082e-9
0.390, 5.087e-9
0.391, 5.093e-9
0.392, 5.097e-9
0.393, 5.102e-9
0.394, 5.105e-9
0.395, 5.110e-9
0.396, 5.113e-9
0.397, 5.116e-9
0.398, 5.121e-9
0.399, 5.126e-9
0.400, 5.130e-9
0.401, 5.133e-9
0.402, 5.137e-9
0.403, 5.142e-9
0.404, 5.146e-9
0.405, 5.148e-9
0.406, 5.152e-9
0.407, 5.156e-9
0.408, 5.160e-9
0.409, 5.164e-9
0.410, 5.151e-9
0.411, 5.159e-9
0.412, 5.168e-9
0.413, 5.171e-9
0.414, 5.176e-9
0.415, 5.181e-9
0.416, 5.184e-9
0.417, 5.189e-9
0.418, 5.194e-9
0.419, 5.198e-9
0.420, 5.202e-9
0.421, 5.206e-9
0.422, 5.210e-9
0.423, 5.213e-9
0.424, 5.218e-9
0.425, 5.221e-9
0.426, 5.223e-9
0.427, 5.228e-9
0.428, 5.232e-9
0.429, 5.235e-9
0.430, 5.240e-9
0.431, 5.245e-9
0.432, 5.246e-9
0.433, 5.251e-9
0.434, 5.254e-9
0.435, 5.258e-9
0.436, 5.259e-9
0.437, 5.264e-9
0.438, 5.270e-9
0.439, 5.271e-9
0.440, 5.277e-9
0.441, 5.281e-9
0.442, 5.284e-9
0.443, 5.288e-9
0.444, 5.290e-9
0.445, 5.292e-9
0.446, 5.296e-9
0.447, 5.302e-9
0.448, 5.304e-9
0.449, 5.309e-9
0.450, 5.315e-9
0.451, 5.320e-9
0.452, 5.323e-9
0.453, 5.327e-9
0.454, 5.333e-9
0.455, 5.336e-9
0.456, 5.342e-9
0.457, 5.345e-9
0.458, 5.346e-9
0.459, 5.352e-9
0.460, 5.356e-9
0.461, 5.358e-9
0.462, 5.361e-9
0.463, 5.367e-9
0.464, 5.370e-9
0.465, 5.374e-9
0.466, 5.380e-9
0.467, 5.385e-9
0.468, 5.389e-9
0.469, 5.393e-9
0.470, 5.396e-9
0.471, 5.398e-9
0.472, 5.402e-9
0.473, 5.407e-9
0.474, 5.410e-9
0.475, 5.416e-9
0.476, 5.421e-9
0.477, 5.424e-9
0.478, 5.428e-9
0.479, 5.433e-9
0.480, 5.439e-9
0.481, 5.444e-9
0.482, 5.448e-9
0.483, 5.452e-9
0.484, 5.457e-9
0.485, 5.460e-9
0.486, 5.465e-9
0.487, 5.468e-9
0.488, 5.473e-9
0.489, 5.480e-9
0.490, 5.483e-9
0.491, 5.489e-9
0.492, 5.494e-9
0.493, 5.500e-9
0.494, 5.505e-9
0.495, 5.510e-9
0.496, 5.514e-9
0.497, 5.519e-9
0.498, 5.522e-9
0.499, 5.528e-9
0.500, 5.441e-9
0.499, 5.086e-9
0.498, 4.860e-9
0.497, 4.711e-9
0.496, 4.592e-9
0.495, 4.484e-9
0.494, 4.389e-9
0.493, 4.304e-9
0.492, 4.230e-9
0.491, 4.158e-9
0.490, 4.088e-9
0.489, 4.029e-9
0.488, 3.971e-9
0.487, 3.916e-9
0.486, 3.866e-9
0.485, 3.814e-9
0.484, 3.766e-9
0.483, 3.724e-9
0.482, 3.679e-9
0.481, 3.634e-9
0.480, 3.590e-9
0.479, 3.554e-9
0.478, 3.518e-9
0.477, 3.481e-9
0.476, 3.447e-9
0.475, 3.413e-9
0.474, 3.378e-9
0.473, 3.346e-9
0.472, 3.316e-9
0.471, 3.287e-9
0.470, 3.259e-9
0.469, 3.228e-9
0.468, 3.200e-9
0.467, 3.172e-9
0.466, 3.142e-9
0.465, 3.111e-9
0.464, 3.087e-9
0.463, 3.065e-9
0.462, 3.040e-9
0.461, 3.016e-9
0.460, 2.991e-9
0.459, 2.966e-9
0.458, 2.944e-9
0.457, 2.923e-9
0.456, 2.901e-9
0.455, 2.878e-9
0.454, 2.857e-9
0.453, 2.835e-9
0.452, 2.815e-9
0.451, 2.796e-9
0.450, 2.775e-9
0.449, 2.755e-9
0.448, 2.734e-9
0.447, 2.714e-9
0.446, 2.693e-9
0.445, 2.670e-9
0.444, 2.649e-9
0.443, 2.627e-9
0.442, 2.609e-9
0.441, 2.593e-9
0.440, 2.576e-9
0.439, 2.560e-9
0.438, 2.542e-9
0.437, 2.523e-9
0.436, 2.506e-9
0.435, 2.488e-9
0.434, 2.471e-9
0.433, 2.453e-9
0.432, 2.438e-9
0.431, 2.420e-9
0.430, 2.404e-9
0.429, 2.386e-9
0.428, 2.368e-9
0.427, 2.352e-9
0.426, 2.336e-9
0.425, 2.321e-9
0.424, 2.304e-9
0.423, 2.285e-9
0.422, 2.271e-9
0.421, 2.254e-9
0.420, 2.238e-9
0.419, 2.224e-9
0.418, 2.209e-9
0.417, 2.192e-9
0.416, 2.176e-9
0.415, 2.160e-9
0.414, 2.143e-9
0.413, 2.127e-9
0.412, 2.113e-9
0.411, 2.100e-9
0.410, 2.089e-9
0.409, 2.083e-9
0.408, 2.064e-9
0.407, 2.047e-9
0.406, 2.033e-9
0.405, 2.017e-9
0.404, 2.001e-9
0.403, 1.988e-9
0.402, 1.975e-9
0.401, 1.959e-9
0.400, 1.945e-9
0.399, 1.931e-9
0.398, 1.916e-9
0.397, 1.903e-9
0.396, 1.888e-9
0.395, 1.873e-9
0.394, 1.860e-9
0.393, 1.846e-9
0.392, 1.832e-9
0.391, 1.817e-9
0.390, 1.804e-9
0.389, 1.790e-9
0.388, 1.774e-9
0.387, 1.762e-9
0.386, 1.748e-9
0.385, 1.735e-9
0.384, 1.724e-9
0.383, 1.710e-9
0.382, 1.697e-9
0.381, 1.683e-9
0.380, 1.669e-9
0.379, 1.654e-9
0.378, 1.641e-9
0.377, 1.628e-9
0.376, 1.615e-9
0.375, 1.603e-9
0.374, 1.593e-9
0.373, 1.580e-9
0.372, 1.565e-9
0.371, 1.555e-9
0.370, 1.543e-9
0.369, 1.530e-9
0.368, 1.518e-9
0.367, 1.505e-9
0.366, 1.492e-9
0.365, 1.480e-9
0.364, 1.469e-9
0.363, 1.458e-9
0.362, 1.446e-9
0.361, 1.435e-9
0.360, 1.421e-9
0.359, 1.408e-9
0.358, 1.396e-9
0.357, 1.382e-9
0.356, 1.369e-9
0.355, 1.359e-9
0.354, 1.346e-9
0.353, 1.335e-9
0.352, 1.323e-9
0.351, 1.311e-9
0.350, 1.300e-9
0.349, 1.289e-9
0.348, 1.278e-9
0.347, 1.266e-9
0.346, 1.254e-9
0.345, 1.244e-9
0.344, 1.232e-9
0.343, 1.220e-9
0.342, 1.209e-9
0.341, 1.198e-9
0.340, 1.187e-9
0.339, 1.175e-9
0.338, 1.161e-9
0.337, 1.151e-9
0.336, 1.141e-9
0.335, 1.131e-9
0.334, 1.120e-9
0.333, 1.111e-9
0.332, 1.102e-9
0.331, 1.090e-9
0.330, 1.080e-9
0.329, 1.071e-9
0.328, 1.059e-9
0.327, 1.049e-9
0.326, 1.039e-9
0.325, 1.029e-9
0.324, 1.019e-9
0.323, 1.010e-9
0.322, 9.976e-10
0.321, 9.887e-10
0.320, 9.806e-10
0.319, 9.699e-10
0.318, 9.595e-10
0.317, 9.500e-10
0.316, 9.400e-10
0.315, 9.283e-10
0.314, 9.157e-10
0.313, 9.053e-10
0.312, 8.967e-10
0.311, 8.869e-10
0.310, 8.778e-10
0.309, 8.676e-10
0.308, 8.573e-10
0.307, 8.405e-10
0.306, 8.333e-10
0.305, 8.246e-10
0.304, 8.159e-10
0.303, 8.072e-10
0.302, 7.977e-10
0.301, 7.893e-10
0.300, 7.800e-10
0.299, 7.711e-10
0.298, 7.619e-10
0.297, 7.526e-10
0.296, 7.432e-10
0.295, 7.361e-10
0.294, 7.264e-10
0.293, 7.167e-10
0.292, 7.077e-10
0.291, 6.985e-10
0.290, 6.869e-10
0.289, 6.790e-10
0.288, 6.705e-10
0.287, 6.615e-10
0.286, 6.520e-10
0.285, 6.446e-10
0.284, 6.361e-10
0.283, 6.278e-10
0.282, 6.203e-10
0.281, 6.128e-10
0.280, 6.037e-10
0.279, 5.953e-10
0.278, 5.874e-10
0.277, 5.784e-10
0.276, 5.686e-10
0.275, 5.609e-10
0.274, 5.518e-10
0.273, 5.436e-10
0.272, 5.352e-10
0.271, 5.271e-10
0.270, 5.193e-10
0.269, 5.109e-10
0.268, 5.017e-10
0.267, 4.911e-10
0.266, 4.804e-10
0.265, 4.726e-10
0.264, 4.625e-10
0.263, 4.525e-10
0.262, 4.450e-10
0.261, 4.356e-10
0.260, 4.274e-10
0.259, 4.213e-10
0.258, 4.118e-10
0.257, 4.037e-10
0.256, 3.975e-10
0.255, 3.899e-10
0.254, 3.821e-10
0.253, 3.751e-10
0.252, 3.669e-10
0.251, 3.596e-10
0.250, 3.517e-10
0.249, 3.420e-10
0.248, 3.349e-10
0.247, 3.268e-10
0.246, 3.204e-10
0.245, 3.124e-10
0.244, 3.038e-10
0.243, 2.974e-10
0.242, 2.880e-10
0.241, 2.806e-10
0.240, 2.743e-10
0.239, 2.667e-10
0.238, 2.602e-10
0.237, 2.507e-10
0.236, 2.412e-10
0.235, 2.338e-10
0.234, 2.256e-10
0.233, 2.186e-10
0.232, 2.099e-10
0.231, 2.032e-10
0.230, 1.941e-10
0.229, 1.869e-10
0.228, 1.785e-10
0.227, 1.719e-10
0.226, 1.654e-10
0.225, 1.592e-10
0.224, 1.525e-10
0.223, 1.452e-10
0.222, 1.383e-10
0.221, 1.321e-10
0.220, 1.242e-10
0.219, 1.177e-10
0.218, 1.089e-10
0.217, 1.041e-10
0.216, 9.713e-11
0.215, 8.826e-11
0.214, 8.192e-11
0.213, 7.422e-11
0.212, 6.720e-11
0.211, 5.999e-11
0.210, 5.307e-11
0.209, 4.576e-11
0.208, 3.913e-11
0.207, 3.094e-11
0.206, 2.236e-11
0.205, 1.837e-11
0.204, 1.193e-11
0.203, 2.184e-12
0.202, -5.907e-12
0.201, -1.380e-11
0.200, -2.238e-11
0.199, -2.999e-11
0.198, -3.837e-11
0.197, -4.558e-11
0.196, -5.436e-11
0.195, -6.157e-11
0.194, -6.927e-11
0.193, -7.580e-11
0.192, -8.292e-11
0.191, -9.023e-11
0.190, -9.715e-11
0.189, -1.036e-10
0.188, -1.122e-10
0.187, -1.193e-10
0.186, -1.271e-10
0.185, -1.347e-10
0.184, -1.429e-10
0.183, -1.508e-10
0.182, -1.569e-10
0.181, -1.644e-10
0.180, -1.719e-10
0.179, -1.795e-10
0.178, -1.866e-10
0.177, -1.938e-10
0.176, -2.008e-10
0.175, -2.074e-10
0.174, -2.141e-10
0.173, -2.232e-10
0.172, -2.313e-10
0.171, -2.383e-10
0.170, -2.480e-10
0.169, -2.575e-10
0.168, -2.636e-10
0.167, -2.727e-10
0.166, -2.791e-10
0.165, -2.885e-10
0.164, -2.969e-10
0.163, -3.039e-10
0.162, -3.123e-10
0.161, -3.190e-10
0.160, -3.258e-10
0.159, -3.335e-10
0.158, -3.410e-10
0.157, -3.479e-10
0.156, -3.542e-10
0.155, -3.631e-10
0.154, -3.715e-10
0.153, -3.775e-10
0.152, -3.853e-10
0.151, -3.936e-10
0.150, -4.005e-10
0.149, -4.086e-10
0.148, -4.166e-10
0.147, -4.250e-10
0.146, -4.350e-10
0.145, -4.420e-10
0.144, -4.491e-10
0.143, -4.567e-10
0.142, -4.632e-10
0.141, -4.716e-10
0.140, -4.790e-10
0.139, -4.863e-10
0.138, -4.959e-10
0.137, -5.059e-10
0.136, -5.152e-10
0.135, -5.240e-10
0.134, -5.327e-10
0.133, -5.417e-10
0.132, -5.498e-10
0.131, -5.573e-10
0.130, -5.662e-10
0.129, -5.743e-10
0.128, -5.813e-10
0.127, -5.895e-10
0.126, -5.966e-10
0.125, -6.046e-10
0.124, -6.139e-10
0.123, -6.203e-10
0.122, -6.289e-10
0.121, -6.376e-10
0.120, -6.454e-10
0.119, -6.544e-10
0.118, -6.617e-10
0.117, -6.708e-10
0.116, -6.801e-10
0.115, -6.868e-10
0.114, -6.966e-10
0.113, -7.052e-10
0.112, -7.126e-10
0.111, -7.215e-10
0.110, -7.302e-10
0.109, -7.385e-10
0.108, -7.470e-10
0.107, -7.545e-10
0.106, -7.652e-10
0.105, -7.734e-10
0.104, -7.829e-10
0.103, -7.929e-10
0.102, -8.041e-10
0.101, -8.091e-10
0.100, -8.163e-10
0.099, -8.233e-10
0.098, -8.321e-10
0.097, -8.411e-10
0.096, -8.504e-10
0.095, -8.589e-10
0.094, -8.669e-10
0.093, -8.735e-10
0.092, -8.826e-10
0.091, -8.924e-10
0.090, -9.017e-10
0.089, -9.095e-10
0.088, -9.184e-10
0.087, -9.278e-10
0.086, -9.346e-10
0.085, -9.432e-10
0.084, -9.523e-10
0.083, -9.600e-10
0.082, -9.692e-10
0.081, -9.775e-10
0.080, -9.880e-10
0.079, -9.980e-10
0.078, -1.006e-9
0.077, -1.016e-9
0.076, -1.024e-9
0.075, -1.035e-9
0.074, -1.044e-9
0.073, -1.052e-9
0.072, -1.061e-9
0.071, -1.070e-9
0.070, -1.078e-9
0.069, -1.087e-9
0.068, -1.096e-9
0.067, -1.104e-9
0.066, -1.113e-9
0.065, -1.121e-9
0.064, -1.131e-9
0.063, -1.140e-9
0.062, -1.148e-9
0.061, -1.156e-9
0.060, -1.165e-9
0.059, -1.174e-9
0.058, -1.182e-9
0.057, -1.190e-9
0.056, -1.199e-9
0.055, -1.210e-9
0.054, -1.219e-9
0.053, -1.227e-9
0.052, -1.238e-9
0.051, -1.246e-9
0.050, -1.256e-9
0.049, -1.265e-9
0.048, -1.274e-9
0.047, -1.284e-9
0.046, -1.292e-9
0.045, -1.301e-9
0.044, -1.309e-9
0.043, -1.316e-9
0.042, -1.323e-9
0.041, -1.331e-9
0.040, -1.339e-9
0.039, -1.348e-9
0.038, -1.355e-9
0.037, -1.365e-9
0.036, -1.374e-9
0.035, -1.382e-9
0.034, -1.392e-9
0.033, -1.401e-9
0.032, -1.408e-9
0.031, -1.417e-9
0.030, -1.425e-9
0.029, -1.434e-9
0.028, -1.442e-9
0.027, -1.450e-9
0.026, -1.458e-9
0.025, -1.467e-9
0.024, -1.477e-9
0.023, -1.488e-9
0.022, -1.496e-9
0.021, -1.506e-9
0.020, -1.515e-9
0.019, -1.524e-9
0.018, -1.532e-9
0.017, -1.540e-9
0.016, -1.547e-9
0.015, -1.554e-9
0.014, -1.561e-9
0.013, -1.571e-9
0.012, -1.578e-9
0.011, -1.586e-9
0.010, -1.593e-9
0.009, -1.600e-9
0.008, -1.609e-9
0.007, -1.618e-9
0.006, -1.626e-9
0.005, -1.634e-9
0.004, -1.642e-9
0.003, -1.647e-9
0.002, -1.656e-9
0.001, -1.664e-9
-0.000, -1.666e-9
-0.001, -1.674e-9
-0.002, -1.684e-9
-0.003, -1.692e-9
-0.004, -1.699e-9
-0.005, -1.707e-9
-0.006, -1.715e-9
-0.007, -1.724e-9
-0.008, -1.731e-9
-0.009, -1.740e-9
-0.010, -1.748e-9
-0.011, -1.757e-9
-0.012, -1.765e-9
-0.013, -1.771e-9
-0.014, -1.778e-9
-0.015, -1.785e-9
-0.016, -1.792e-9
-0.017, -1.799e-9
-0.018, -1.807e-9
-0.019, -1.814e-9
-0.020, -1.821e-9
-0.021, -1.828e-9
-0.022, -1.836e-9
-0.023, -1.843e-9
-0.024, -1.852e-9
-0.025, -1.860e-9
-0.026, -1.867e-9
-0.027, -1.873e-9
-0.028, -1.881e-9
-0.029, -1.887e-9
-0.030, -1.896e-9
-0.031, -1.903e-9
-0.032, -1.909e-9
-0.033, -1.917e-9
-0.034, -1.924e-9
-0.035, -1.931e-9
-0.036, -1.937e-9
-0.037, -1.944e-9
-0.038, -1.949e-9
-0.039, -1.956e-9
-0.040, -1.964e-9
-0.041, -1.970e-9
-0.042, -1.977e-9
-0.043, -1.985e-9
-0.044, -1.993e-9
-0.045, -2.000e-9
-0.046, -2.005e-9
-0.047, -2.011e-9
-0.048, -2.017e-9
-0.049, -2.022e-9
-0.050, -2.030e-9
-0.051, -2.036e-9
-0.052, -2.042e-9
-0.053, -2.050e-9
-0.054, -2.056e-9
-0.055, -2.062e-9
-0.056, -2.068e-9
-0.057, -2.075e-9
-0.058, -2.083e-9
-0.059, -2.091e-9
-0.060, -2.096e-9
-0.061, -2.100e-9
-0.062, -2.107e-9
-0.063, -2.112e-9
-0.064, -2.119e-9
-0.065, -2.125e-9
-0.066, -2.130e-9
-0.067, -2.137e-9
-0.068, -2.142e-9
-0.069, -2.147e-9
-0.070, -2.153e-9
-0.071, -2.158e-9
-0.072, -2.162e-9
-0.073, -2.168e-9
-0.074, -2.173e-9
-0.075, -2.178e-9
-0.076, -2.185e-9
-0.077, -2.190e-9
-0.078, -2.196e-9
-0.079, -2.203e-9
-0.080, -2.208e-9
-0.081, -2.214e-9
-0.082, -2.219e-9
-0.083, -2.226e-9
-0.084, -2.231e-9
-0.085, -2.236e-9
-0.086, -2.242e-9
-0.087, -2.246e-9
-0.088, -2.252e-9
-0.089, -2.258e-9
-0.090, -2.263e-9
-0.091, -2.268e-9
-0.092, -2.272e-9
-0.093, -2.276e-9
-0.094, -2.282e-9
-0.095, -2.287e-9
-0.096, -2.293e-9
-0.097, -2.297e-9
-0.098, -2.301e-9
-0.099, -2.305e-9
-0.100, -2.311e-9
-0.101, -2.318e-9
-0.102, -2.325e-9
-0.103, -2.333e-9
-0.104, -2.336e-9
-0.105, -2.340e-9
-0.106, -2.345e-9
-0.107, -2.350e-9
-0.108, -2.355e-9
-0.109, -2.359e-9
-0.110, -2.364e-9
-0.111, -2.368e-9
-0.112, -2.371e-9
-0.113, -2.378e-9
-0.114, -2.381e-9
-0.115, -2.386e-9
-0.116, -2.390e-9
-0.117, -2.394e-9
-0.118, -2.399e-9
-0.119, -2.402e-9
-0.120, -2.407e-9
-0.121, -2.411e-9
-0.122, -2.415e-9
-0.123, -2.420e-9
-0.124, -2.424e-9
-0.125, -2.428e-9
-0.126, -2.432e-9
-0.127, -2.436e-9
-0.128, -2.439e-9
-0.129, -2.443e-9
-0.130, -2.447e-9
-0.131, -2.452e-9
-0.132, -2.455e-9
-0.133, -2.460e-9
-0.134, -2.465e-9
-0.135, -2.469e-9
-0.136, -2.473e-9
-0.137, -2.477e-9
-0.138, -2.482e-9
-0.139, -2.486e-9
-0.140, -2.492e-9
-0.141, -2.494e-9
-0.142, -2.498e-9
-0.143, -2.503e-9
-0.144, -2.507e-9
-0.145, -2.510e-9
-0.146, -2.513e-9
-0.147, -2.517e-9
-0.148, -2.520e-9
-0.149, -2.523e-9
-0.150, -2.527e-9
-0.151, -2.530e-9
-0.152, -2.535e-9
-0.153, -2.539e-9
-0.154, -2.541e-9
-0.155, -2.546e-9
-0.156, -2.549e-9
-0.157, -2.551e-9
-0.158, -2.554e-9
-0.159, -2.558e-9
-0.160, -2.561e-9
-0.161, -2.565e-9
-0.162, -2.568e-9
-0.163, -2.571e-9
-0.164, -2.575e-9
-0.165, -2.579e-9
-0.166, -2.582e-9
-0.167, -2.586e-9
-0.168, -2.590e-9
-0.169, -2.594e-9
-0.170, -2.597e-9
-0.171, -2.600e-9
-0.172, -2.602e-9
-0.173, -2.607e-9
-0.174, -2.612e-9
-0.175, -2.615e-9
-0.176, -2.617e-9
-0.177, -2.622e-9
-0.178, -2.627e-9
-0.179, -2.628e-9
-0.180, -2.631e-9
-0.181, -2.634e-9
-0.182, -2.637e-9
-0.183, -2.639e-9
-0.184, -2.643e-9
-0.185, -2.646e-9
-0.186, -2.649e-9
-0.187, -2.653e-9
-0.188, -2.657e-9
-0.189, -2.657e-9
-0.190, -2.663e-9
-0.191, -2.667e-9
-0.192, -2.668e-9
-0.193, -2.672e-9
-0.194, -2.674e-9
-0.195, -2.678e-9
-0.196, -2.690e-9
-0.197, -2.693e-9
-0.198, -2.689e-9
-0.199, -2.693e-9
-0.200, -2.696e-9
-0.201, -2.699e-9
-0.202, -2.704e-9
-0.203, -2.708e-9
-0.204, -2.712e-9
-0.205, -2.709e-9
-0.206, -2.715e-9
-0.207, -2.720e-9
-0.208, -2.723e-9
-0.209, -2.725e-9
-0.210, -2.730e-9
-0.211, -2.735e-9
-0.212, -2.740e-9
-0.213, -2.742e-9
-0.214, -2.746e-9
-0.215, -2.748e-9
-0.216, -2.752e-9
-0.217, -2.756e-9
-0.218, -2.758e-9
-0.219, -2.762e-9
-0.220, -2.765e-9
-0.221, -2.767e-9
-0.222, -2.770e-9
-0.223, -2.773e-9
-0.224, -2.778e-9
-0.225, -2.781e-9
-0.226, -2.784e-9
-0.227, -2.787e-9
-0.228, -2.790e-9
-0.229, -2.795e-9
-0.230, -2.797e-9
-0.231, -2.800e-9
-0.232, -2.806e-9
-0.233, -2.812e-9
-0.234, -2.812e-9
-0.235, -2.816e-9
-0.236, -2.820e-9
-0.237, -2.823e-9
-0.238, -2.825e-9
-0.239, -2.830e-9
-0.240, -2.834e-9
-0.241, -2.837e-9
-0.242, -2.842e-9
-0.243, -2.846e-9
-0.244, -2.850e-9
-0.245, -2.854e-9
-0.246, -2.857e-9
-0.247, -2.862e-9
-0.248, -2.865e-9
-0.249, -2.870e-9
-0.250, -2.874e-9
-0.251, -2.876e-9
-0.252, -2.880e-9
-0.253, -2.883e-9
-0.254, -2.886e-9
-0.255, -2.890e-9
-0.256, -2.892e-9
-0.257, -2.895e-9
-0.258, -2.899e-9
-0.259, -2.903e-9
-0.260, -2.905e-9
-0.261, -2.910e-9
-0.262, -2.915e-9
-0.263, -2.919e-9
-0.264, -2.921e-9
-0.265, -2.933e-9
-0.266, -2.933e-9
-0.267, -2.932e-9
-0.268, -2.935e-9
-0.269, -2.939e-9
-0.270, -2.944e-9
-0.271, -2.948e-9
-0.272, -2.952e-9
-0.273, -2.957e-9
-0.274, -2.961e-9
-0.275, -2.966e-9
-0.276, -2.969e-9
-0.277, -2.973e-9
-0.278, -2.976e-9
-0.279, -2.979e-9
-0.280, -2.983e-9
-0.281, -2.986e-9
-0.282, -2.990e-9
-0.283, -2.995e-9
-0.284, -3.000e-9
-0.285, -3.002e-9
-0.286, -3.006e-9
-0.287, -3.011e-9
-0.288, -3.013e-9
-0.289, -3.019e-9
-0.290, -3.022e-9
-0.291, -3.026e-9
-0.292, -3.030e-9
-0.293, -3.034e-9
-0.294, -3.038e-9
-0.295, -3.041e-9
-0.296, -3.046e-9
-0.297, -3.050e-9
-0.298, -3.053e-9
-0.299, -3.060e-9
-0.300, -3.065e-9
-0.301, -3.070e-9
-0.302, -3.075e-9
-0.303, -3.078e-9
-0.304, -3.082e-9
-0.305, -3.085e-9
-0.306, -3.089e-9
-0.307, -3.097e-9
-0.308, -3.103e-9
-0.309, -3.104e-9
-0.310, -3.107e-9
-0.311, -3.110e-9
-0.312, -3.115e-9
-0.313, -3.120e-9
-0.314, -3.123e-9
-0.315, -3.128e-9
-0.316, -3.133e-9
-0.317, -3.137e-9
-0.318, -3.139e-9
-0.319, -3.145e-9
-0.320, -3.148e-9
-0.321, -3.151e-9
-0.322, -3.155e-9
-0.323, -3.158e-9
-0.324, -3.163e-9
-0.325, -3.166e-9
-0.326, -3.173e-9
-0.327, -3.187e-9
-0.328, -3.183e-9
-0.329, -3.186e-9
-0.330, -3.192e-9
-0.331, -3.196e-9
-0.332, -3.200e-9
-0.333, -3.203e-9
-0.334, -3.208e-9
-0.335, -3.212e-9
-0.336, -3.216e-9
-0.337, -3.221e-9
-0.338, -3.226e-9
-0.339, -3.231e-9
-0.340, -3.236e-9
-0.341, -3.240e-9
-0.342, -3.245e-9
-0.343, -3.247e-9
-0.344, -3.251e-9
-0.345, -3.256e-9
-0.346, -3.261e-9
-0.347, -3.265e-9
-0.348, -3.269e-9
-0.349, -3.273e-9
-0.350, -3.278e-9
-0.351, -3.282e-9
-0.352, -3.287e-9
-0.353, -3.292e-9
-0.354, -3.296e-9
-0.355, -3.300e-9
-0.356, -3.306e-9
-0.357, -3.310e-9
-0.358, -3.316e-9
-0.359, -3.319e-9
-0.360, -3.324e-9
-0.361, -3.331e-9
-0.362, -3.336e-9
-0.363, -3.341e-9
-0.364, -3.346e-9
-0.365, -3.352e-9
-0.366, -3.355e-9
-0.367, -3.360e-9
-0.368, -3.364e-9
-0.369, -3.369e-9
-0.370, -3.374e-9
-0.371, -3.378e-9
-0.372, -3.382e-9
-0.373, -3.386e-9
-0.374, -3.390e-9
-0.375, -3.394e-9
-0.376, -3.399e-9
-0.377, -3.405e-9
-0.378, -3.409e-9
-0.379, -3.416e-9
-0.380, -3.422e-9
-0.381, -3.425e-9
-0.382, -3.432e-9
-0.383, -3.437e-9
-0.384, -3.441e-9
-0.385, -3.446e-9
-0.386, -3.450e-9
-0.387, -3.455e-9
-0.388, -3.459e-9
-0.389, -3.463e-9
-0.390, -3.468e-9
-0.391, -3.473e-9
-0.392, -3.476e-9
-0.393, -3.482e-9
-0.394, -3.485e-9
-0.395, -3.490e-9
-0.396, -3.495e-9
-0.397, -3.498e-9
-0.398, -3.502e-9
-0.399, -3.508e-9
-0.400, -3.512e-9
-0.401, -3.516e-9
-0.402, -3.521e-9
-0.403, -3.525e-9
-0.404, -3.529e-9
-0.405, -3.534e-9
-0.406, -3.540e-9
-0.407, -3.543e-9
-0.408, -3.550e-9
-0.409, -3.555e-9
-0.410, -3.561e-9
-0.411, -3.566e-9
-0.412, -3.570e-9
-0.413, -3.575e-9
-0.414, -3.581e-9
-0.415, -3.586e-9
-0.416, -3.592e-9
-0.417, -3.597e-9
-0.418, -3.602e-9
-0.419, -3.608e-9
-0.420, -3.613e-9
-0.421, -3.619e-9
-0.422, -3.624e-9
-0.423, -3.629e-9
-0.424, -3.635e-9
-0.425, -3.641e-9
-0.426, -3.645e-9
-0.427, -3.652e-9
-0.428, -3.659e-9
-0.429, -3.664e-9
-0.430, -3.670e-9
-0.431, -3.675e-9
-0.432, -3.682e-9
-0.433, -3.688e-9
-0.434, -3.693e-9
-0.435, -3.698e-9
-0.436, -3.704e-9
-0.437, -3.708e-9
-0.438, -3.715e-9
-0.439, -3.721e-9
-0.440, -3.727e-9
-0.441, -3.731e-9
-0.442, -3.737e-9
-0.443, -3.741e-9
-0.444, -3.746e-9
-0.445, -3.750e-9
-0.446, -3.754e-9
-0.447, -3.760e-9
-0.448, -3.765e-9
-0.449, -3.771e-9
-0.450, -3.775e-9
-0.451, -3.781e-9
-0.452, -3.786e-9
-0.453, -3.791e-9
-0.454, -3.798e-9
-0.455, -3.802e-9
-0.456, -3.807e-9
-0.457, -3.815e-9
-0.458, -3.820e-9
-0.459, -3.826e-9
-0.460, -3.833e-9
-0.461, -3.838e-9
-0.462, -3.844e-9
-0.463, -3.851e-9
-0.464, -3.855e-9
-0.465, -3.861e-9
-0.466, -3.867e-9
-0.467, -3.874e-9
-0.468, -3.879e-9
-0.469, -3.885e-9
-0.470, -3.892e-9
-0.471, -3.897e-9
-0.472, -3.904e-9
-0.473, -3.909e-9
-0.474, -3.914e-9
-0.475, -3.922e-9
-0.476, -3.929e-9
-0.477, -3.933e-9
-0.478, -3.942e-9
-0.479, -3.949e-9
-0.480, -3.955e-9
-0.481, -3.961e-9
-0.482, -3.966e-9
-0.483, -3.973e-9
-0.484, -3.978e-9
-0.485, -3.984e-9
-0.486, -3.991e-9
-0.487, -3.995e-9
-0.488, -4.001e-9
-0.489, -4.007e-9
-0.490, -4.012e-9
-0.491, -4.018e-9
-0.492, -4.025e-9
-0.493, -4.031e-9
-0.494, -4.039e-9
-0.495, -4.046e-9
-0.496, -4.051e-9
-0.497, -4.059e-9
-0.498, -4.065e-9
-0.499, -4.072e-9
