Mar. 6, 2025   16:08:43
Cyclic Voltammetry
File: cv surface (incubation) (4).bin
Data Source:  Experiment
Instrument Model:  CHI920C
Ref. Electrode: 
Header: 
Note: 

Init E (V) = -0.5
High E (V) = 0.5
Low E (V) = -0.5
Init P/N = P
Scan Rate (V/s) = 0.05
Segment = 2
Sample Interval (V) = 0.001
Quiet Time (sec) = 10
Sensitivity (A/V) = 1e-7

Results:

Channel 1:
Segment 1:

Segment 2:

Potential/V, Current/A

-0.500, -5.091e-9
-0.499, -5.027e-9
-0.498, -4.983e-9
-0.497, -4.949e-9
-0.496, -4.909e-9
-0.495, -4.868e-9
-0.494, -4.837e-9
-0.493, -4.812e-9
-0.492, -4.776e-9
-0.491, -4.738e-9
-0.490, -4.712e-9
-0.489, -4.693e-9
-0.488, -4.660e-9
-0.487, -4.619e-9
-0.486, -4.590e-9
-0.485, -4.570e-9
-0.484, -4.543e-9
-0.483, -4.508e-9
-0.482, -4.479e-9
-0.481, -4.462e-9
-0.480, -4.437e-9
-0.479, -4.403e-9
-0.478, -4.373e-9
-0.477, -4.353e-9
-0.476, -4.333e-9
-0.475, -4.303e-9
-0.474, -4.272e-9
-0.473, -4.252e-9
-0.472, -4.236e-9
-0.471, -4.212e-9
-0.470, -4.184e-9
-0.469, -4.157e-9
-0.468, -4.135e-9
-0.467, -4.112e-9
-0.466, -4.083e-9
-0.465, -4.057e-9
-0.464, -4.038e-9
-0.463, -4.017e-9
-0.462, -3.993e-9
-0.461, -3.970e-9
-0.460, -3.949e-9
-0.459, -3.930e-9
-0.458, -3.906e-9
-0.457, -3.878e-9
-0.456, -3.859e-9
-0.455, -3.839e-9
-0.454, -3.816e-9
-0.453, -3.792e-9
-0.452, -3.771e-9
-0.451, -3.754e-9
-0.450, -3.735e-9
-0.449, -3.715e-9
-0.448, -3.692e-9
-0.447, -3.672e-9
-0.446, -3.649e-9
-0.445, -3.626e-9
-0.444, -3.605e-9
-0.443, -3.585e-9
-0.442, -3.564e-9
-0.441, -3.544e-9
-0.440, -3.524e-9
-0.439, -3.506e-9
-0.438, -3.488e-9
-0.437, -3.469e-9
-0.436, -3.451e-9
-0.435, -3.430e-9
-0.434, -3.409e-9
-0.433, -3.390e-9
-0.432, -3.371e-9
-0.431, -3.350e-9
-0.430, -3.330e-9
-0.429, -3.308e-9
-0.428, -3.289e-9
-0.427, -3.270e-9
-0.426, -3.250e-9
-0.425, -3.230e-9
-0.424, -3.214e-9
-0.423, -3.195e-9
-0.422, -3.173e-9
-0.421, -3.152e-9
-0.420, -3.136e-9
-0.419, -3.121e-9
-0.418, -3.101e-9
-0.417, -3.079e-9
-0.416, -3.061e-9
-0.415, -3.046e-9
-0.414, -3.026e-9
-0.413, -3.005e-9
-0.412, -2.990e-9
-0.411, -2.974e-9
-0.410, -2.955e-9
-0.409, -2.933e-9
-0.408, -2.913e-9
-0.407, -2.898e-9
-0.406, -2.882e-9
-0.405, -2.861e-9
-0.404, -2.842e-9
-0.403, -2.827e-9
-0.402, -2.809e-9
-0.401, -2.788e-9
-0.400, -2.771e-9
-0.399, -2.758e-9
-0.398, -2.743e-9
-0.397, -2.722e-9
-0.396, -2.701e-9
-0.395, -2.685e-9
-0.394, -2.668e-9
-0.393, -2.650e-9
-0.392, -2.631e-9
-0.391, -2.617e-9
-0.390, -2.603e-9
-0.389, -2.585e-9
-0.388, -2.565e-9
-0.387, -2.551e-9
-0.386, -2.537e-9
-0.385, -2.521e-9
-0.384, -2.502e-9
-0.383, -2.486e-9
-0.382, -2.469e-9
-0.381, -2.453e-9
-0.380, -2.435e-9
-0.379, -2.419e-9
-0.378, -2.404e-9
-0.377, -2.391e-9
-0.376, -2.375e-9
-0.375, -2.357e-9
-0.374, -2.340e-9
-0.373, -2.325e-9
-0.372, -2.308e-9
-0.371, -2.290e-9
-0.370, -2.275e-9
-0.369, -2.264e-9
-0.368, -2.252e-9
-0.367, -2.232e-9
-0.366, -2.213e-9
-0.365, -2.200e-9
-0.364, -2.189e-9
-0.363, -2.170e-9
-0.362, -2.153e-9
-0.361, -2.142e-9
-0.360, -2.131e-9
-0.359, -2.114e-9
-0.358, -2.094e-9
-0.357, -2.080e-9
-0.356, -2.071e-9
-0.355, -2.055e-9
-0.354, -2.037e-9
-0.353, -2.023e-9
-0.352, -2.012e-9
-0.351, -1.996e-9
-0.350, -1.979e-9
-0.349, -1.965e-9
-0.348, -1.952e-9
-0.347, -1.939e-9
-0.346, -1.924e-9
-0.345, -1.910e-9
-0.344, -1.898e-9
-0.343, -1.885e-9
-0.342, -1.869e-9
-0.341, -1.854e-9
-0.340, -1.839e-9
-0.339, -1.825e-9
-0.338, -1.813e-9
-0.337, -1.800e-9
-0.336, -1.787e-9
-0.335, -1.775e-9
-0.334, -1.763e-9
-0.333, -1.750e-9
-0.332, -1.734e-9
-0.331, -1.721e-9
-0.330, -1.708e-9
-0.329, -1.695e-9
-0.328, -1.681e-9
-0.327, -1.668e-9
-0.326, -1.660e-9
-0.325, -1.649e-9
-0.324, -1.636e-9
-0.323, -1.623e-9
-0.322, -1.612e-9
-0.321, -1.601e-9
-0.320, -1.587e-9
-0.319, -1.574e-9
-0.318, -1.562e-9
-0.317, -1.553e-9
-0.316, -1.541e-9
-0.315, -1.525e-9
-0.314, -1.514e-9
-0.313, -1.505e-9
-0.312, -1.492e-9
-0.311, -1.475e-9
-0.310, -1.463e-9
-0.309, -1.455e-9
-0.308, -1.442e-9
-0.307, -1.425e-9
-0.306, -1.415e-9
-0.305, -1.408e-9
-0.304, -1.397e-9
-0.303, -1.383e-9
-0.302, -1.370e-9
-0.301, -1.363e-9
-0.300, -1.352e-9
-0.299, -1.337e-9
-0.298, -1.327e-9
-0.297, -1.318e-9
-0.296, -1.310e-9
-0.295, -1.298e-9
-0.294, -1.287e-9
-0.293, -1.277e-9
-0.292, -1.267e-9
-0.291, -1.254e-9
-0.290, -1.240e-9
-0.289, -1.231e-9
-0.288, -1.222e-9
-0.287, -1.209e-9
-0.286, -1.197e-9
-0.285, -1.188e-9
-0.284, -1.180e-9
-0.283, -1.168e-9
-0.282, -1.153e-9
-0.281, -1.145e-9
-0.280, -1.138e-9
-0.279, -1.129e-9
-0.278, -1.115e-9
-0.277, -1.105e-9
-0.276, -1.098e-9
-0.275, -1.089e-9
-0.274, -1.075e-9
-0.273, -1.065e-9
-0.272, -1.060e-9
-0.271, -1.054e-9
-0.270, -1.041e-9
-0.269, -1.028e-9
-0.268, -1.022e-9
-0.267, -1.016e-9
-0.266, -1.003e-9
-0.265, -9.881e-10
-0.264, -9.763e-10
-0.263, -9.702e-10
-0.262, -9.604e-10
-0.261, -9.473e-10
-0.260, -9.371e-10
-0.259, -9.312e-10
-0.258, -9.236e-10
-0.257, -9.125e-10
-0.256, -9.012e-10
-0.255, -8.932e-10
-0.254, -8.887e-10
-0.253, -8.798e-10
-0.252, -8.687e-10
-0.251, -8.598e-10
-0.250, -8.541e-10
-0.249, -8.442e-10
-0.248, -8.351e-10
-0.247, -8.273e-10
-0.246, -8.213e-10
-0.245, -8.139e-10
-0.244, -8.058e-10
-0.243, -7.973e-10
-0.242, -7.901e-10
-0.241, -7.819e-10
-0.240, -7.742e-10
-0.239, -7.649e-10
-0.238, -7.549e-10
-0.237, -7.456e-10
-0.236, -7.385e-10
-0.235, -7.313e-10
-0.234, -7.235e-10
-0.233, -7.126e-10
-0.232, -7.049e-10
-0.231, -6.983e-10
-0.230, -6.912e-10
-0.229, -6.807e-10
-0.228, -6.718e-10
-0.227, -6.681e-10
-0.226, -6.598e-10
-0.225, -6.485e-10
-0.224, -6.392e-10
-0.223, -6.361e-10
-0.222, -6.313e-10
-0.221, -6.173e-10
-0.220, -6.076e-10
-0.219, -6.048e-10
-0.218, -6.014e-10
-0.217, -5.892e-10
-0.216, -5.786e-10
-0.215, -5.749e-10
-0.214, -5.713e-10
-0.213, -5.600e-10
-0.212, -5.482e-10
-0.211, -5.433e-10
-0.210, -5.390e-10
-0.209, -5.288e-10
-0.208, -5.153e-10
-0.207, -5.089e-10
-0.206, -5.071e-10
-0.205, -4.984e-10
-0.204, -4.862e-10
-0.203, -4.771e-10
-0.202, -4.741e-10
-0.201, -4.697e-10
-0.200, -4.587e-10
-0.199, -4.489e-10
-0.198, -4.466e-10
-0.197, -4.432e-10
-0.196, -4.337e-10
-0.195, -4.229e-10
-0.194, -4.172e-10
-0.193, -4.145e-10
-0.192, -4.074e-10
-0.191, -3.945e-10
-0.190, -3.870e-10
-0.189, -3.855e-10
-0.188, -3.795e-10
-0.187, -3.667e-10
-0.186, -3.580e-10
-0.185, -3.565e-10
-0.184, -3.537e-10
-0.183, -3.423e-10
-0.182, -3.326e-10
-0.181, -3.324e-10
-0.180, -3.308e-10
-0.179, -3.212e-10
-0.178, -3.099e-10
-0.177, -3.075e-10
-0.176, -3.058e-10
-0.175, -2.959e-10
-0.174, -2.831e-10
-0.173, -2.770e-10
-0.172, -2.760e-10
-0.171, -2.679e-10
-0.170, -2.545e-10
-0.169, -2.495e-10
-0.168, -2.456e-10
-0.167, -2.371e-10
-0.166, -2.271e-10
-0.165, -2.201e-10
-0.164, -2.162e-10
-0.163, -2.108e-10
-0.162, -2.011e-10
-0.161, -1.958e-10
-0.160, -1.922e-10
-0.159, -1.855e-10
-0.158, -1.768e-10
-0.157, -1.711e-10
-0.156, -1.671e-10
-0.155, -1.630e-10
-0.154, -1.542e-10
-0.153, -1.465e-10
-0.152, -1.434e-10
-0.151, -1.398e-10
-0.150, -1.319e-10
-0.149, -1.239e-10
-0.148, -1.199e-10
-0.147, -1.172e-10
-0.146, -1.091e-10
-0.145, -1.004e-10
-0.144, -9.530e-11
-0.143, -9.364e-11
-0.142, -8.838e-11
-0.141, -7.892e-11
-0.140, -7.483e-11
-0.139, -7.288e-11
-0.138, -6.830e-11
-0.137, -5.796e-11
-0.136, -4.958e-11
-0.135, -4.870e-11
-0.134, -4.656e-11
-0.133, -3.720e-11
-0.132, -2.755e-11
-0.131, -2.414e-11
-0.130, -2.131e-11
-0.129, -1.185e-11
-0.128, -2.788e-12
-0.127, 2.769e-12
-0.126, 7.545e-12
-0.125, 1.144e-11
-0.124, 1.993e-11
-0.123, 2.402e-11
-0.122, 2.646e-11
-0.121, 3.026e-11
-0.120, 3.825e-11
-0.119, 4.400e-11
-0.118, 4.498e-11
-0.117, 4.878e-11
-0.116, 5.648e-11
-0.115, 6.272e-11
-0.114, 6.603e-11
-0.113, 7.003e-11
-0.112, 7.588e-11
-0.111, 8.417e-11
-0.110, 8.914e-11
-0.109, 8.865e-11
-0.108, 9.411e-11
-0.107, 1.039e-10
-0.106, 1.089e-10
-0.105, 1.100e-10
-0.104, 1.147e-10
-0.103, 1.237e-10
-0.102, 1.309e-10
-0.101, 1.309e-10
-0.100, 1.352e-10
-0.099, 1.430e-10
-0.098, 1.483e-10
-0.097, 1.500e-10
-0.096, 1.535e-10
-0.095, 1.599e-10
-0.094, 1.649e-10
-0.093, 1.683e-10
-0.092, 1.705e-10
-0.091, 1.753e-10
-0.090, 1.818e-10
-0.089, 1.866e-10
-0.088, 1.904e-10
-0.087, 1.933e-10
-0.086, 1.983e-10
-0.085, 2.056e-10
-0.084, 2.092e-10
-0.083, 2.131e-10
-0.082, 2.194e-10
-0.081, 2.262e-10
-0.080, 2.304e-10
-0.079, 2.347e-10
-0.078, 2.409e-10
-0.077, 2.459e-10
-0.076, 2.505e-10
-0.075, 2.555e-10
-0.074, 2.613e-10
-0.073, 2.645e-10
-0.072, 2.691e-10
-0.071, 2.741e-10
-0.070, 2.779e-10
-0.069, 2.822e-10
-0.068, 2.857e-10
-0.067, 2.904e-10
-0.066, 2.956e-10
-0.065, 2.988e-10
-0.064, 3.020e-10
-0.063, 3.070e-10
-0.062, 3.103e-10
-0.061, 3.120e-10
-0.060, 3.162e-10
-0.059, 3.193e-10
-0.058, 3.252e-10
-0.057, 3.309e-10
-0.056, 3.336e-10
-0.055, 3.374e-10
-0.054, 3.410e-10
-0.053, 3.457e-10
-0.052, 3.505e-10
-0.051, 3.543e-10
-0.050, 3.606e-10
-0.049, 3.662e-10
-0.048, 3.697e-10
-0.047, 3.721e-10
-0.046, 3.769e-10
-0.045, 3.818e-10
-0.044, 3.852e-10
-0.043, 3.885e-10
-0.042, 3.944e-10
-0.041, 3.978e-10
-0.040, 3.999e-10
-0.039, 4.046e-10
-0.038, 4.079e-10
-0.037, 4.094e-10
-0.036, 4.126e-10
-0.035, 4.179e-10
-0.034, 4.250e-10
-0.033, 4.275e-10
-0.032, 4.287e-10
-0.031, 4.355e-10
-0.030, 4.432e-10
-0.029, 4.457e-10
-0.028, 4.449e-10
-0.027, 4.513e-10
-0.026, 4.585e-10
-0.025, 4.618e-10
-0.024, 4.637e-10
-0.023, 4.686e-10
-0.022, 4.767e-10
-0.021, 4.816e-10
-0.020, 4.824e-10
-0.019, 4.889e-10
-0.018, 4.982e-10
-0.017, 5.063e-10
-0.016, 5.076e-10
-0.015, 5.091e-10
-0.014, 5.150e-10
-0.013, 5.249e-10
-0.012, 5.274e-10
-0.011, 5.268e-10
-0.010, 5.311e-10
-0.009, 5.386e-10
-0.008, 5.447e-10
-0.007, 5.444e-10
-0.006, 5.435e-10
-0.005, 5.478e-10
-0.004, 5.544e-10
-0.003, 5.560e-10
-0.002, 5.565e-10
-0.001, 5.623e-10
0.000, 5.694e-10
0.001, 5.742e-10
0.002, 5.791e-10
0.003, 5.845e-10
0.004, 5.924e-10
0.005, 5.988e-10
0.006, 6.004e-10
0.007, 6.011e-10
0.008, 6.042e-10
0.009, 6.130e-10
0.010, 6.163e-10
0.011, 6.148e-10
0.012, 6.188e-10
0.013, 6.267e-10
0.014, 6.317e-10
0.015, 6.334e-10
0.016, 6.357e-10
0.017, 6.390e-10
0.018, 6.443e-10
0.019, 6.456e-10
0.020, 6.466e-10
0.021, 6.520e-10
0.022, 6.561e-10
0.023, 6.587e-10
0.024, 6.639e-10
0.025, 6.673e-10
0.026, 6.712e-10
0.027, 6.757e-10
0.028, 6.766e-10
0.029, 6.776e-10
0.030, 6.795e-10
0.031, 6.837e-10
0.032, 6.884e-10
0.033, 6.912e-10
0.034, 6.918e-10
0.035, 6.955e-10
0.036, 6.999e-10
0.037, 7.022e-10
0.038, 7.039e-10
0.039, 7.062e-10
0.040, 7.099e-10
0.041, 7.126e-10
0.042, 7.142e-10
0.043, 7.176e-10
0.044, 7.220e-10
0.045, 7.269e-10
0.046, 7.286e-10
0.047, 7.308e-10
0.048, 7.336e-10
0.049, 7.389e-10
0.050, 7.458e-10
0.051, 7.487e-10
0.052, 7.483e-10
0.053, 7.533e-10
0.054, 7.627e-10
0.055, 7.649e-10
0.056, 7.667e-10
0.057, 7.705e-10
0.058, 7.761e-10
0.059, 7.803e-10
0.060, 7.811e-10
0.061, 7.827e-10
0.062, 7.856e-10
0.063, 7.931e-10
0.064, 8.149e-10
0.065, 8.318e-10
0.066, 8.357e-10
0.067, 8.351e-10
0.068, 8.343e-10
0.069, 8.362e-10
0.070, 8.400e-10
0.071, 8.389e-10
0.072, 8.398e-10
0.073, 8.418e-10
0.074, 8.467e-10
0.075, 8.502e-10
0.076, 8.530e-10
0.077, 8.583e-10
0.078, 8.575e-10
0.079, 8.604e-10
0.080, 8.639e-10
0.081, 8.717e-10
0.082, 8.723e-10
0.083, 8.727e-10
0.084, 8.899e-10
0.085, 8.977e-10
0.086, 8.983e-10
0.087, 8.975e-10
0.088, 8.997e-10
0.089, 9.004e-10
0.090, 9.006e-10
0.091, 9.071e-10
0.092, 9.085e-10
0.093, 9.142e-10
0.094, 9.198e-10
0.095, 9.217e-10
0.096, 9.210e-10
0.097, 9.308e-10
0.098, 9.466e-10
0.099, 9.473e-10
0.100, 9.442e-10
0.101, 9.484e-10
0.102, 9.530e-10
0.103, 9.548e-10
0.104, 9.515e-10
0.105, 9.532e-10
0.106, 9.625e-10
0.107, 9.667e-10
0.108, 9.697e-10
0.109, 9.772e-10
0.110, 9.839e-10
0.111, 9.867e-10
0.112, 9.777e-10
0.113, 9.718e-10
0.114, 9.774e-10
0.115, 9.811e-10
0.116, 9.810e-10
0.117, 9.796e-10
0.118, 9.817e-10
0.119, 9.870e-10
0.120, 9.897e-10
0.121, 9.896e-10
0.122, 9.951e-10
0.123, 1.002e-9
0.124, 1.004e-9
0.125, 1.002e-9
0.126, 1.006e-9
0.127, 1.014e-9
0.128, 1.017e-9
0.129, 1.017e-9
0.130, 1.020e-9
0.131, 1.020e-9
0.132, 1.026e-9
0.133, 1.025e-9
0.134, 1.023e-9
0.135, 1.028e-9
0.136, 1.031e-9
0.137, 1.035e-9
0.138, 1.037e-9
0.139, 1.044e-9
0.140, 1.048e-9
0.141, 1.048e-9
0.142, 1.048e-9
0.143, 1.049e-9
0.144, 1.056e-9
0.145, 1.059e-9
0.146, 1.058e-9
0.147, 1.061e-9
0.148, 1.068e-9
0.149, 1.072e-9
0.150, 1.076e-9
0.151, 1.079e-9
0.152, 1.088e-9
0.153, 1.094e-9
0.154, 1.087e-9
0.155, 1.088e-9
0.156, 1.092e-9
0.157, 1.094e-9
0.158, 1.098e-9
0.159, 1.100e-9
0.160, 1.106e-9
0.161, 1.116e-9
0.162, 1.124e-9
0.163, 1.124e-9
0.164, 1.131e-9
0.165, 1.133e-9
0.166, 1.130e-9
0.167, 1.133e-9
0.168, 1.141e-9
0.169, 1.142e-9
0.170, 1.142e-9
0.171, 1.148e-9
0.172, 1.151e-9
0.173, 1.153e-9
0.174, 1.156e-9
0.175, 1.161e-9
0.176, 1.160e-9
0.177, 1.163e-9
0.178, 1.167e-9
0.179, 1.176e-9
0.180, 1.179e-9
0.181, 1.179e-9
0.182, 1.185e-9
0.183, 1.195e-9
0.184, 1.201e-9
0.185, 1.194e-9
0.186, 1.205e-9
0.187, 1.216e-9
0.188, 1.227e-9
0.189, 1.236e-9
0.190, 1.243e-9
0.191, 1.247e-9
0.192, 1.247e-9
0.193, 1.250e-9
0.194, 1.244e-9
0.195, 1.249e-9
0.196, 1.262e-9
0.197, 1.268e-9
0.198, 1.273e-9
0.199, 1.276e-9
0.200, 1.284e-9
0.201, 1.288e-9
0.202, 1.291e-9
0.203, 1.294e-9
0.204, 1.302e-9
0.205, 1.309e-9
0.206, 1.306e-9
0.207, 1.304e-9
0.208, 1.309e-9
0.209, 1.314e-9
0.210, 1.313e-9
0.211, 1.309e-9
0.212, 1.323e-9
0.213, 1.335e-9
0.214, 1.338e-9
0.215, 1.333e-9
0.216, 1.342e-9
0.217, 1.348e-9
0.218, 1.350e-9
0.219, 1.350e-9
0.220, 1.355e-9
0.221, 1.360e-9
0.222, 1.368e-9
0.223, 1.372e-9
0.224, 1.377e-9
0.225, 1.386e-9
0.226, 1.393e-9
0.227, 1.398e-9
0.228, 1.398e-9
0.229, 1.408e-9
0.230, 1.419e-9
0.231, 1.426e-9
0.232, 1.433e-9
0.233, 1.445e-9
0.234, 1.456e-9
0.235, 1.459e-9
0.236, 1.456e-9
0.237, 1.463e-9
0.238, 1.476e-9
0.239, 1.484e-9
0.240, 1.486e-9
0.241, 1.485e-9
0.242, 1.494e-9
0.243, 1.505e-9
0.244, 1.504e-9
0.245, 1.509e-9
0.246, 1.521e-9
0.247, 1.526e-9
0.248, 1.527e-9
0.249, 1.532e-9
0.250, 1.545e-9
0.251, 1.552e-9
0.252, 1.551e-9
0.253, 1.554e-9
0.254, 1.563e-9
0.255, 1.574e-9
0.256, 1.575e-9
0.257, 1.576e-9
0.258, 1.585e-9
0.259, 1.597e-9
0.260, 1.601e-9
0.261, 1.602e-9
0.262, 1.607e-9
0.263, 1.613e-9
0.264, 1.620e-9
0.265, 1.618e-9
0.266, 1.623e-9
0.267, 1.632e-9
0.268, 1.639e-9
0.269, 1.639e-9
0.270, 1.643e-9
0.271, 1.654e-9
0.272, 1.658e-9
0.273, 1.659e-9
0.274, 1.663e-9
0.275, 1.676e-9
0.276, 1.686e-9
0.277, 1.687e-9
0.278, 1.692e-9
0.279, 1.698e-9
0.280, 1.706e-9
0.281, 1.712e-9
0.282, 1.712e-9
0.283, 1.722e-9
0.284, 1.732e-9
0.285, 1.738e-9
0.286, 1.740e-9
0.287, 1.744e-9
0.288, 1.751e-9
0.289, 1.758e-9
0.290, 1.759e-9
0.291, 1.765e-9
0.292, 1.775e-9
0.293, 1.783e-9
0.294, 1.783e-9
0.295, 1.786e-9
0.296, 1.795e-9
0.297, 1.798e-9
0.298, 1.802e-9
0.299, 1.809e-9
0.300, 1.821e-9
0.301, 1.828e-9
0.302, 1.833e-9
0.303, 1.841e-9
0.304, 1.849e-9
0.305, 1.852e-9
0.306, 1.856e-9
0.307, 1.860e-9
0.308, 1.865e-9
0.309, 1.872e-9
0.310, 1.882e-9
0.311, 1.889e-9
0.312, 1.887e-9
0.313, 1.889e-9
0.314, 1.899e-9
0.315, 1.910e-9
0.316, 1.910e-9
0.317, 1.914e-9
0.318, 1.927e-9
0.319, 1.936e-9
0.320, 1.941e-9
0.321, 1.945e-9
0.322, 1.950e-9
0.323, 1.958e-9
0.324, 1.965e-9
0.325, 1.970e-9
0.326, 1.970e-9
0.327, 1.973e-9
0.328, 1.983e-9
0.329, 1.990e-9
0.330, 1.991e-9
0.331, 1.993e-9
0.332, 2.000e-9
0.333, 2.004e-9
0.334, 2.011e-9
0.335, 2.014e-9
0.336, 2.020e-9
0.337, 2.027e-9
0.338, 2.028e-9
0.339, 2.030e-9
0.340, 2.040e-9
0.341, 2.048e-9
0.342, 2.056e-9
0.343, 2.059e-9
0.344, 2.066e-9
0.345, 2.073e-9
0.346, 2.077e-9
0.347, 2.081e-9
0.348, 2.086e-9
0.349, 2.094e-9
0.350, 2.098e-9
0.351, 2.100e-9
0.352, 2.101e-9
0.353, 2.107e-9
0.354, 2.117e-9
0.355, 2.121e-9
0.356, 2.125e-9
0.357, 2.134e-9
0.358, 2.141e-9
0.359, 2.146e-9
0.360, 2.150e-9
0.361, 2.158e-9
0.362, 2.171e-9
0.363, 2.174e-9
0.364, 2.172e-9
0.365, 2.180e-9
0.366, 2.196e-9
0.367, 2.207e-9
0.368, 2.210e-9
0.369, 2.212e-9
0.370, 2.218e-9
0.371, 2.228e-9
0.372, 2.235e-9
0.373, 2.238e-9
0.374, 2.244e-9
0.375, 2.251e-9
0.376, 2.252e-9
0.377, 2.253e-9
0.378, 2.259e-9
0.379, 2.267e-9
0.380, 2.272e-9
0.381, 2.273e-9
0.382, 2.281e-9
0.383, 2.289e-9
0.384, 2.287e-9
0.385, 2.285e-9
0.386, 2.293e-9
0.387, 2.301e-9
0.388, 2.311e-9
0.389, 2.307e-9
0.390, 2.310e-9
0.391, 2.324e-9
0.392, 2.331e-9
0.393, 2.330e-9
0.394, 2.335e-9
0.395, 2.345e-9
0.396, 2.351e-9
0.397, 2.354e-9
0.398, 2.355e-9
0.399, 2.369e-9
0.400, 2.379e-9
0.401, 2.377e-9
0.402, 2.380e-9
0.403, 2.385e-9
0.404, 2.394e-9
0.405, 2.397e-9
0.406, 2.395e-9
0.407, 2.400e-9
0.408, 2.410e-9
0.409, 2.419e-9
0.410, 2.418e-9
0.411, 2.421e-9
0.412, 2.430e-9
0.413, 2.432e-9
0.414, 2.441e-9
0.415, 2.448e-9
0.416, 2.452e-9
0.417, 2.460e-9
0.418, 2.467e-9
0.419, 2.471e-9
0.420, 2.472e-9
0.421, 2.478e-9
0.422, 2.487e-9
0.423, 2.492e-9
0.424, 2.491e-9
0.425, 2.495e-9
0.426, 2.507e-9
0.427, 2.515e-9
0.428, 2.514e-9
0.429, 2.520e-9
0.430, 2.528e-9
0.431, 2.543e-9
0.432, 2.546e-9
0.433, 2.549e-9
0.434, 2.552e-9
0.435, 2.562e-9
0.436, 2.570e-9
0.437, 2.575e-9
0.438, 2.579e-9
0.439, 2.588e-9
0.440, 2.595e-9
0.441, 2.597e-9
0.442, 2.599e-9
0.443, 2.607e-9
0.444, 2.613e-9
0.445, 2.612e-9
0.446, 2.614e-9
0.447, 2.622e-9
0.448, 2.634e-9
0.449, 2.641e-9
0.450, 2.644e-9
0.451, 2.644e-9
0.452, 2.653e-9
0.453, 2.661e-9
0.454, 2.662e-9
0.455, 2.671e-9
0.456, 2.681e-9
0.457, 2.689e-9
0.458, 2.690e-9
0.459, 2.697e-9
0.460, 2.707e-9
0.461, 2.713e-9
0.462, 2.715e-9
0.463, 2.717e-9
0.464, 2.732e-9
0.465, 2.738e-9
0.466, 2.738e-9
0.467, 2.737e-9
0.468, 2.747e-9
0.469, 2.758e-9
0.470, 2.763e-9
0.471, 2.759e-9
0.472, 2.764e-9
0.473, 2.769e-9
0.474, 2.774e-9
0.475, 2.777e-9
0.476, 2.783e-9
0.477, 2.788e-9
0.478, 2.791e-9
0.479, 2.792e-9
0.480, 2.796e-9
0.481, 2.801e-9
0.482, 2.813e-9
0.483, 2.819e-9
0.484, 2.822e-9
0.485, 2.826e-9
0.486, 2.825e-9
0.487, 2.825e-9
0.488, 2.834e-9
0.489, 2.844e-9
0.490, 2.848e-9
0.491, 2.853e-9
0.492, 2.857e-9
0.493, 2.863e-9
0.494, 2.869e-9
0.495, 2.868e-9
0.496, 2.869e-9
0.497, 2.873e-9
0.498, 2.879e-9
0.499, 2.887e-9
0.500, 2.863e-9
0.499, 2.788e-9
0.498, 2.726e-9
0.497, 2.673e-9
0.496, 2.628e-9
0.495, 2.594e-9
0.494, 2.564e-9
0.493, 2.529e-9
0.492, 2.497e-9
0.491, 2.468e-9
0.490, 2.444e-9
0.489, 2.420e-9
0.488, 2.390e-9
0.487, 2.365e-9
0.486, 2.343e-9
0.485, 2.320e-9
0.484, 2.296e-9
0.483, 2.276e-9
0.482, 2.258e-9
0.481, 2.240e-9
0.480, 2.218e-9
0.479, 2.197e-9
0.478, 2.178e-9
0.477, 2.165e-9
0.476, 2.147e-9
0.475, 2.132e-9
0.474, 2.116e-9
0.473, 2.103e-9
0.472, 2.087e-9
0.471, 2.068e-9
0.470, 2.053e-9
0.469, 2.040e-9
0.468, 2.026e-9
0.467, 2.009e-9
0.466, 1.997e-9
0.465, 1.986e-9
0.464, 1.977e-9
0.463, 1.965e-9
0.462, 1.952e-9
0.461, 1.938e-9
0.460, 1.923e-9
0.459, 1.908e-9
0.458, 1.891e-9
0.457, 1.879e-9
0.456, 1.871e-9
0.455, 1.862e-9
0.454, 1.846e-9
0.453, 1.829e-9
0.452, 1.818e-9
0.451, 1.808e-9
0.450, 1.794e-9
0.449, 1.784e-9
0.448, 1.771e-9
0.447, 1.765e-9
0.446, 1.757e-9
0.445, 1.745e-9
0.444, 1.730e-9
0.443, 1.717e-9
0.442, 1.707e-9
0.441, 1.694e-9
0.440, 1.680e-9
0.439, 1.669e-9
0.438, 1.659e-9
0.437, 1.654e-9
0.436, 1.643e-9
0.435, 1.633e-9
0.434, 1.623e-9
0.433, 1.614e-9
0.432, 1.599e-9
0.431, 1.588e-9
0.430, 1.580e-9
0.429, 1.569e-9
0.428, 1.554e-9
0.427, 1.543e-9
0.426, 1.539e-9
0.425, 1.532e-9
0.424, 1.520e-9
0.423, 1.507e-9
0.422, 1.499e-9
0.421, 1.493e-9
0.420, 1.483e-9
0.419, 1.471e-9
0.418, 1.459e-9
0.417, 1.450e-9
0.416, 1.441e-9
0.415, 1.428e-9
0.414, 1.416e-9
0.413, 1.410e-9
0.412, 1.400e-9
0.411, 1.391e-9
0.410, 1.382e-9
0.409, 1.374e-9
0.408, 1.365e-9
0.407, 1.357e-9
0.406, 1.343e-9
0.405, 1.334e-9
0.404, 1.326e-9
0.403, 1.317e-9
0.402, 1.303e-9
0.401, 1.292e-9
0.400, 1.287e-9
0.399, 1.279e-9
0.398, 1.267e-9
0.397, 1.258e-9
0.396, 1.253e-9
0.395, 1.250e-9
0.394, 1.240e-9
0.393, 1.228e-9
0.392, 1.220e-9
0.391, 1.215e-9
0.390, 1.204e-9
0.389, 1.191e-9
0.388, 1.183e-9
0.387, 1.176e-9
0.386, 1.168e-9
0.385, 1.155e-9
0.384, 1.148e-9
0.383, 1.146e-9
0.382, 1.140e-9
0.381, 1.129e-9
0.380, 1.120e-9
0.379, 1.116e-9
0.378, 1.111e-9
0.377, 1.101e-9
0.376, 1.090e-9
0.375, 1.085e-9
0.374, 1.082e-9
0.373, 1.072e-9
0.372, 1.058e-9
0.371, 1.052e-9
0.370, 1.047e-9
0.369, 1.039e-9
0.368, 1.025e-9
0.367, 1.017e-9
0.366, 1.015e-9
0.365, 1.009e-9
0.364, 9.988e-10
0.363, 9.908e-10
0.362, 9.867e-10
0.361, 9.794e-10
0.360, 9.671e-10
0.359, 9.574e-10
0.358, 9.507e-10
0.357, 9.437e-10
0.356, 9.355e-10
0.355, 9.281e-10
0.354, 9.203e-10
0.353, 9.132e-10
0.352, 9.051e-10
0.351, 8.976e-10
0.350, 8.908e-10
0.349, 8.852e-10
0.348, 8.756e-10
0.347, 8.679e-10
0.346, 8.609e-10
0.345, 8.536e-10
0.344, 8.444e-10
0.343, 8.356e-10
0.342, 8.294e-10
0.341, 8.245e-10
0.340, 8.161e-10
0.339, 8.078e-10
0.338, 8.020e-10
0.337, 7.969e-10
0.336, 7.892e-10
0.335, 7.804e-10
0.334, 7.738e-10
0.333, 7.691e-10
0.332, 7.640e-10
0.331, 7.549e-10
0.330, 7.469e-10
0.329, 7.416e-10
0.328, 7.369e-10
0.327, 7.286e-10
0.326, 7.211e-10
0.325, 7.146e-10
0.324, 7.094e-10
0.323, 7.021e-10
0.322, 6.940e-10
0.321, 6.876e-10
0.320, 6.817e-10
0.319, 6.745e-10
0.318, 6.697e-10
0.317, 6.637e-10
0.316, 6.557e-10
0.315, 6.505e-10
0.314, 6.442e-10
0.313, 6.400e-10
0.312, 6.322e-10
0.311, 6.240e-10
0.310, 6.202e-10
0.309, 6.166e-10
0.308, 6.079e-10
0.307, 5.985e-10
0.306, 5.943e-10
0.305, 5.909e-10
0.304, 5.862e-10
0.303, 5.770e-10
0.302, 5.716e-10
0.301, 5.680e-10
0.300, 5.617e-10
0.299, 5.544e-10
0.298, 5.482e-10
0.297, 5.434e-10
0.296, 5.384e-10
0.295, 5.320e-10
0.294, 5.259e-10
0.293, 5.189e-10
0.292, 5.149e-10
0.291, 5.113e-10
0.290, 5.027e-10
0.289, 4.956e-10
0.288, 4.911e-10
0.287, 4.857e-10
0.286, 4.785e-10
0.285, 4.697e-10
0.284, 4.645e-10
0.283, 4.605e-10
0.282, 4.528e-10
0.281, 4.465e-10
0.280, 4.396e-10
0.279, 4.351e-10
0.278, 4.285e-10
0.277, 4.217e-10
0.276, 4.171e-10
0.275, 4.124e-10
0.274, 4.064e-10
0.273, 4.019e-10
0.272, 3.960e-10
0.271, 3.922e-10
0.270, 3.873e-10
0.269, 3.828e-10
0.268, 3.773e-10
0.267, 3.739e-10
0.266, 3.700e-10
0.265, 3.640e-10
0.264, 3.585e-10
0.263, 3.530e-10
0.262, 3.491e-10
0.261, 3.443e-10
0.260, 3.387e-10
0.259, 3.314e-10
0.258, 3.272e-10
0.257, 3.231e-10
0.256, 3.174e-10
0.255, 3.128e-10
0.254, 3.103e-10
0.253, 3.055e-10
0.252, 2.983e-10
0.251, 2.945e-10
0.250, 2.913e-10
0.249, 2.862e-10
0.248, 2.790e-10
0.247, 2.755e-10
0.246, 2.744e-10
0.245, 2.692e-10
0.244, 2.611e-10
0.243, 2.563e-10
0.242, 2.553e-10
0.241, 2.519e-10
0.240, 2.438e-10
0.239, 2.379e-10
0.238, 2.357e-10
0.237, 2.331e-10
0.236, 2.241e-10
0.235, 2.161e-10
0.234, 2.139e-10
0.233, 2.116e-10
0.232, 2.056e-10
0.231, 1.963e-10
0.230, 1.913e-10
0.229, 1.913e-10
0.228, 1.880e-10
0.227, 1.794e-10
0.226, 1.730e-10
0.225, 1.716e-10
0.224, 1.708e-10
0.223, 1.639e-10
0.222, 1.566e-10
0.221, 1.552e-10
0.220, 1.555e-10
0.219, 1.495e-10
0.218, 1.415e-10
0.217, 1.372e-10
0.216, 1.373e-10
0.215, 1.337e-10
0.214, 1.262e-10
0.213, 1.192e-10
0.212, 1.201e-10
0.211, 1.207e-10
0.210, 1.127e-10
0.209, 1.039e-10
0.208, 1.026e-10
0.207, 1.024e-10
0.206, 9.674e-11
0.205, 8.884e-11
0.204, 8.602e-11
0.203, 8.602e-11
0.202, 7.978e-11
0.201, 7.257e-11
0.200, 6.906e-11
0.199, 6.769e-11
0.198, 6.379e-11
0.197, 5.736e-11
0.196, 5.092e-11
0.195, 4.761e-11
0.194, 4.576e-11
0.193, 4.225e-11
0.192, 3.708e-11
0.191, 3.318e-11
0.190, 3.104e-11
0.189, 2.860e-11
0.188, 2.236e-11
0.187, 1.837e-11
0.186, 1.603e-11
0.185, 1.252e-11
0.184, 6.863e-12
0.183, 8.189e-13
0.182, -2.885e-12
0.181, -6.297e-12
0.180, -1.195e-11
0.179, -1.663e-11
0.178, -1.897e-11
0.177, -2.336e-11
0.176, -3.077e-11
0.175, -3.691e-11
0.174, -3.827e-11
0.173, -4.178e-11
0.172, -4.938e-11
0.171, -5.533e-11
0.170, -5.562e-11
0.169, -5.855e-11
0.168, -6.635e-11
0.167, -7.210e-11
0.166, -7.200e-11
0.165, -7.356e-11
0.164, -8.087e-11
0.163, -8.799e-11
0.162, -8.945e-11
0.161, -8.896e-11
0.160, -9.325e-11
0.159, -1.021e-10
0.158, -1.052e-10
0.157, -1.039e-10
0.156, -1.071e-10
0.155, -1.161e-10
0.154, -1.227e-10
0.153, -1.219e-10
0.152, -1.233e-10
0.151, -1.294e-10
0.150, -1.364e-10
0.149, -1.376e-10
0.148, -1.371e-10
0.147, -1.434e-10
0.146, -1.521e-10
0.145, -1.549e-10
0.144, -1.549e-10
0.143, -1.585e-10
0.142, -1.655e-10
0.141, -1.707e-10
0.140, -1.706e-10
0.139, -1.710e-10
0.138, -1.790e-10
0.137, -1.861e-10
0.136, -1.879e-10
0.135, -1.877e-10
0.134, -1.938e-10
0.133, -2.006e-10
0.132, -2.033e-10
0.131, -2.028e-10
0.130, -2.073e-10
0.129, -2.138e-10
0.128, -2.177e-10
0.127, -2.196e-10
0.126, -2.226e-10
0.125, -2.288e-10
0.124, -2.334e-10
0.123, -2.351e-10
0.122, -2.390e-10
0.121, -2.441e-10
0.120, -2.494e-10
0.119, -2.522e-10
0.118, -2.557e-10
0.117, -2.627e-10
0.116, -2.687e-10
0.115, -2.705e-10
0.114, -2.730e-10
0.113, -2.779e-10
0.112, -2.830e-10
0.111, -2.865e-10
0.110, -2.900e-10
0.109, -2.937e-10
0.108, -2.985e-10
0.107, -3.016e-10
0.106, -3.036e-10
0.105, -3.081e-10
0.104, -3.129e-10
0.103, -3.160e-10
0.102, -3.211e-10
0.101, -3.252e-10
0.100, -3.283e-10
0.099, -3.313e-10
0.098, -3.348e-10
0.097, -3.383e-10
0.096, -3.413e-10
0.095, -3.432e-10
0.094, -3.469e-10
0.093, -3.512e-10
0.092, -3.553e-10
0.091, -3.576e-10
0.090, -3.607e-10
0.089, -3.660e-10
0.088, -3.714e-10
0.087, -3.728e-10
0.086, -3.743e-10
0.085, -3.800e-10
0.084, -3.875e-10
0.083, -3.886e-10
0.082, -3.885e-10
0.081, -3.947e-10
0.080, -4.030e-10
0.079, -4.061e-10
0.078, -4.059e-10
0.077, -4.105e-10
0.076, -4.183e-10
0.075, -4.221e-10
0.074, -4.219e-10
0.073, -4.256e-10
0.072, -4.339e-10
0.071, -4.379e-10
0.070, -4.388e-10
0.069, -4.411e-10
0.068, -4.477e-10
0.067, -4.529e-10
0.066, -4.540e-10
0.065, -4.553e-10
0.064, -4.622e-10
0.063, -4.693e-10
0.062, -4.699e-10
0.061, -4.710e-10
0.060, -4.787e-10
0.059, -4.860e-10
0.058, -4.867e-10
0.057, -4.869e-10
0.056, -4.959e-10
0.055, -5.053e-10
0.054, -5.066e-10
0.053, -5.060e-10
0.052, -5.140e-10
0.051, -5.239e-10
0.050, -5.255e-10
0.049, -5.247e-10
0.048, -5.310e-10
0.047, -5.423e-10
0.046, -5.462e-10
0.045, -5.462e-10
0.044, -5.497e-10
0.043, -5.587e-10
0.042, -5.643e-10
0.041, -5.651e-10
0.040, -5.650e-10
0.039, -5.735e-10
0.038, -5.808e-10
0.037, -5.810e-10
0.036, -5.825e-10
0.035, -5.888e-10
0.034, -5.976e-10
0.033, -5.997e-10
0.032, -5.998e-10
0.031, -6.073e-10
0.030, -6.169e-10
0.029, -6.189e-10
0.028, -6.185e-10
0.027, -6.242e-10
0.026, -6.345e-10
0.025, -6.374e-10
0.024, -6.378e-10
0.023, -6.420e-10
0.022, -6.497e-10
0.021, -6.562e-10
0.020, -6.579e-10
0.019, -6.604e-10
0.018, -6.679e-10
0.017, -6.754e-10
0.016, -6.799e-10
0.015, -6.825e-10
0.014, -6.855e-10
0.013, -6.932e-10
0.012, -6.994e-10
0.011, -7.004e-10
0.010, -7.041e-10
0.009, -7.123e-10
0.008, -7.185e-10
0.007, -7.211e-10
0.006, -7.241e-10
0.005, -7.320e-10
0.004, -7.416e-10
0.003, -7.455e-10
0.002, -7.475e-10
0.001, -7.538e-10
-0.000, -7.605e-10
-0.001, -7.667e-10
-0.002, -7.720e-10
-0.003, -7.769e-10
-0.004, -7.829e-10
-0.005, -7.910e-10
-0.006, -7.980e-10
-0.007, -8.015e-10
-0.008, -8.055e-10
-0.009, -8.120e-10
-0.010, -8.190e-10
-0.011, -8.224e-10
-0.012, -8.226e-10
-0.013, -8.295e-10
-0.014, -8.407e-10
-0.015, -8.437e-10
-0.016, -8.438e-10
-0.017, -8.500e-10
-0.018, -8.606e-10
-0.019, -8.667e-10
-0.020, -8.668e-10
-0.021, -8.706e-10
-0.022, -8.828e-10
-0.023, -8.935e-10
-0.024, -8.942e-10
-0.025, -8.958e-10
-0.026, -9.064e-10
-0.027, -9.173e-10
-0.028, -9.204e-10
-0.029, -9.214e-10
-0.030, -9.290e-10
-0.031, -9.416e-10
-0.032, -9.461e-10
-0.033, -9.469e-10
-0.034, -9.526e-10
-0.035, -9.632e-10
-0.036, -9.721e-10
-0.037, -9.738e-10
-0.038, -9.789e-10
-0.039, -9.928e-10
-0.040, -1.005e-9
-0.041, -1.007e-9
-0.042, -1.010e-9
-0.043, -1.021e-9
-0.044, -1.034e-9
-0.045, -1.037e-9
-0.046, -1.039e-9
-0.047, -1.047e-9
-0.048, -1.059e-9
-0.049, -1.065e-9
-0.050, -1.067e-9
-0.051, -1.074e-9
-0.052, -1.084e-9
-0.053, -1.093e-9
-0.054, -1.095e-9
-0.055, -1.100e-9
-0.056, -1.112e-9
-0.057, -1.122e-9
-0.058, -1.125e-9
-0.059, -1.130e-9
-0.060, -1.140e-9
-0.061, -1.151e-9
-0.062, -1.156e-9
-0.063, -1.160e-9
-0.064, -1.168e-9
-0.065, -1.179e-9
-0.066, -1.186e-9
-0.067, -1.192e-9
-0.068, -1.201e-9
-0.069, -1.210e-9
-0.070, -1.219e-9
-0.071, -1.226e-9
-0.072, -1.234e-9
-0.073, -1.245e-9
-0.074, -1.254e-9
-0.075, -1.262e-9
-0.076, -1.270e-9
-0.077, -1.278e-9
-0.078, -1.286e-9
-0.079, -1.296e-9
-0.080, -1.301e-9
-0.081, -1.309e-9
-0.082, -1.317e-9
-0.083, -1.326e-9
-0.084, -1.334e-9
-0.085, -1.340e-9
-0.086, -1.349e-9
-0.087, -1.359e-9
-0.088, -1.368e-9
-0.089, -1.374e-9
-0.090, -1.381e-9
-0.091, -1.392e-9
-0.092, -1.401e-9
-0.093, -1.410e-9
-0.094, -1.416e-9
-0.095, -1.426e-9
-0.096, -1.437e-9
-0.097, -1.446e-9
-0.098, -1.452e-9
-0.099, -1.462e-9
-0.100, -1.473e-9
-0.101, -1.485e-9
-0.102, -1.493e-9
-0.103, -1.503e-9
-0.104, -1.516e-9
-0.105, -1.527e-9
-0.106, -1.534e-9
-0.107, -1.540e-9
-0.108, -1.550e-9
-0.109, -1.562e-9
-0.110, -1.570e-9
-0.111, -1.576e-9
-0.112, -1.586e-9
-0.113, -1.597e-9
-0.114, -1.606e-9
-0.115, -1.614e-9
-0.116, -1.624e-9
-0.117, -1.637e-9
-0.118, -1.646e-9
-0.119, -1.652e-9
-0.120, -1.660e-9
-0.121, -1.672e-9
-0.122, -1.682e-9
-0.123, -1.689e-9
-0.124, -1.698e-9
-0.125, -1.711e-9
-0.126, -1.723e-9
-0.127, -1.730e-9
-0.128, -1.738e-9
-0.129, -1.751e-9
-0.130, -1.764e-9
-0.131, -1.772e-9
-0.132, -1.780e-9
-0.133, -1.792e-9
-0.134, -1.802e-9
-0.135, -1.813e-9
-0.136, -1.821e-9
-0.137, -1.830e-9
-0.138, -1.841e-9
-0.139, -1.854e-9
-0.140, -1.866e-9
-0.141, -1.876e-9
-0.142, -1.886e-9
-0.143, -1.897e-9
-0.144, -1.910e-9
-0.145, -1.917e-9
-0.146, -1.926e-9
-0.147, -1.939e-9
-0.148, -1.952e-9
-0.149, -1.961e-9
-0.150, -1.969e-9
-0.151, -1.981e-9
-0.152, -1.996e-9
-0.153, -2.006e-9
-0.154, -2.014e-9
-0.155, -2.025e-9
-0.156, -2.038e-9
-0.157, -2.049e-9
-0.158, -2.056e-9
-0.159, -2.066e-9
-0.160, -2.079e-9
-0.161, -2.093e-9
-0.162, -2.102e-9
-0.163, -2.112e-9
-0.164, -2.125e-9
-0.165, -2.138e-9
-0.166, -2.148e-9
-0.167, -2.156e-9
-0.168, -2.167e-9
-0.169, -2.182e-9
-0.170, -2.193e-9
-0.171, -2.202e-9
-0.172, -2.211e-9
-0.173, -2.225e-9
-0.174, -2.238e-9
-0.175, -2.248e-9
-0.176, -2.259e-9
-0.177, -2.272e-9
-0.178, -2.283e-9
-0.179, -2.294e-9
-0.180, -2.302e-9
-0.181, -2.312e-9
-0.182, -2.325e-9
-0.183, -2.339e-9
-0.184, -2.350e-9
-0.185, -2.360e-9
-0.186, -2.374e-9
-0.187, -2.387e-9
-0.188, -2.398e-9
-0.189, -2.406e-9
-0.190, -2.419e-9
-0.191, -2.434e-9
-0.192, -2.444e-9
-0.193, -2.452e-9
-0.194, -2.464e-9
-0.195, -2.483e-9
-0.196, -2.496e-9
-0.197, -2.504e-9
-0.198, -2.514e-9
-0.199, -2.528e-9
-0.200, -2.541e-9
-0.201, -2.548e-9
-0.202, -2.557e-9
-0.203, -2.573e-9
-0.204, -2.587e-9
-0.205, -2.595e-9
-0.206, -2.604e-9
-0.207, -2.618e-9
-0.208, -2.632e-9
-0.209, -2.643e-9
-0.210, -2.651e-9
-0.211, -2.662e-9
-0.212, -2.677e-9
-0.213, -2.690e-9
-0.214, -2.698e-9
-0.215, -2.709e-9
-0.216, -2.724e-9
-0.217, -2.736e-9
-0.218, -2.747e-9
-0.219, -2.757e-9
-0.220, -2.769e-9
-0.221, -2.781e-9
-0.222, -2.792e-9
-0.223, -2.805e-9
-0.224, -2.818e-9
-0.225, -2.832e-9
-0.226, -2.843e-9
-0.227, -2.856e-9
-0.228, -2.869e-9
-0.229, -2.878e-9
-0.230, -2.889e-9
-0.231, -2.899e-9
-0.232, -2.910e-9
-0.233, -2.921e-9
-0.234, -2.932e-9
-0.235, -2.944e-9
-0.236, -2.958e-9
-0.237, -2.970e-9
-0.238, -2.982e-9
-0.239, -2.994e-9
-0.240, -3.008e-9
-0.241, -3.018e-9
-0.242, -3.029e-9
-0.243, -3.043e-9
-0.244, -3.054e-9
-0.245, -3.065e-9
-0.246, -3.077e-9
-0.247, -3.086e-9
-0.248, -3.098e-9
-0.249, -3.111e-9
-0.250, -3.124e-9
-0.251, -3.134e-9
-0.252, -3.143e-9
-0.253, -3.152e-9
-0.254, -3.168e-9
-0.255, -3.179e-9
-0.256, -3.188e-9
-0.257, -3.201e-9
-0.258, -3.218e-9
-0.259, -3.230e-9
-0.260, -3.236e-9
-0.261, -3.248e-9
-0.262, -3.265e-9
-0.263, -3.277e-9
-0.264, -3.286e-9
-0.265, -3.298e-9
-0.266, -3.313e-9
-0.267, -3.328e-9
-0.268, -3.338e-9
-0.269, -3.347e-9
-0.270, -3.360e-9
-0.271, -3.375e-9
-0.272, -3.384e-9
-0.273, -3.397e-9
-0.274, -3.413e-9
-0.275, -3.429e-9
-0.276, -3.440e-9
-0.277, -3.448e-9
-0.278, -3.464e-9
-0.279, -3.477e-9
-0.280, -3.485e-9
-0.281, -3.491e-9
-0.282, -3.503e-9
-0.283, -3.519e-9
-0.284, -3.530e-9
-0.285, -3.537e-9
-0.286, -3.547e-9
-0.287, -3.564e-9
-0.288, -3.574e-9
-0.289, -3.586e-9
-0.290, -3.600e-9
-0.291, -3.618e-9
-0.292, -3.626e-9
-0.293, -3.632e-9
-0.294, -3.650e-9
-0.295, -3.674e-9
-0.296, -3.678e-9
-0.297, -3.679e-9
-0.298, -3.695e-9
-0.299, -3.722e-9
-0.300, -3.730e-9
-0.301, -3.727e-9
-0.302, -3.745e-9
-0.303, -3.774e-9
-0.304, -3.781e-9
-0.305, -3.775e-9
-0.306, -3.792e-9
-0.307, -3.825e-9
-0.308, -3.837e-9
-0.309, -3.832e-9
-0.310, -3.844e-9
-0.311, -3.874e-9
-0.312, -3.893e-9
-0.313, -3.887e-9
-0.314, -3.893e-9
-0.315, -3.928e-9
-0.316, -3.949e-9
-0.317, -3.941e-9
-0.318, -3.944e-9
-0.319, -3.969e-9
-0.320, -3.993e-9
-0.321, -3.995e-9
-0.322, -3.994e-9
-0.323, -4.015e-9
-0.324, -4.036e-9
-0.325, -4.041e-9
-0.326, -4.045e-9
-0.327, -4.068e-9
-0.328, -4.092e-9
-0.329, -4.103e-9
-0.330, -4.107e-9
-0.331, -4.116e-9
-0.332, -4.140e-9
-0.333, -4.153e-9
-0.334, -4.161e-9
-0.335, -4.171e-9
-0.336, -4.190e-9
-0.337, -4.207e-9
-0.338, -4.216e-9
-0.339, -4.224e-9
-0.340, -4.238e-9
-0.341, -4.253e-9
-0.342, -4.262e-9
-0.343, -4.272e-9
-0.344, -4.288e-9
-0.345, -4.305e-9
-0.346, -4.317e-9
-0.347, -4.328e-9
-0.348, -4.346e-9
-0.349, -4.367e-9
-0.350, -4.378e-9
-0.351, -4.389e-9
-0.352, -4.403e-9
-0.353, -4.423e-9
-0.354, -4.439e-9
-0.355, -4.453e-9
-0.356, -4.462e-9
-0.357, -4.477e-9
-0.358, -4.491e-9
-0.359, -4.505e-9
-0.360, -4.521e-9
-0.361, -4.539e-9
-0.362, -4.554e-9
-0.363, -4.569e-9
-0.364, -4.587e-9
-0.365, -4.607e-9
-0.366, -4.624e-9
-0.367, -4.639e-9
-0.368, -4.658e-9
-0.369, -4.677e-9
-0.370, -4.689e-9
-0.371, -4.704e-9
-0.372, -4.718e-9
-0.373, -4.736e-9
-0.374, -4.752e-9
-0.375, -4.767e-9
-0.376, -4.780e-9
-0.377, -4.795e-9
-0.378, -4.807e-9
-0.379, -4.824e-9
-0.380, -4.839e-9
-0.381, -4.852e-9
-0.382, -4.873e-9
-0.383, -4.891e-9
-0.384, -4.904e-9
-0.385, -4.922e-9
-0.386, -4.937e-9
-0.387, -4.953e-9
-0.388, -4.966e-9
-0.389, -4.978e-9
-0.390, -4.994e-9
-0.391, -5.007e-9
-0.392, -5.021e-9
-0.393, -5.036e-9
-0.394, -5.054e-9
-0.395, -5.070e-9
-0.396, -5.087e-9
-0.397, -5.101e-9
-0.398, -5.114e-9
-0.399, -5.130e-9
-0.400, -5.152e-9
-0.401, -5.170e-9
-0.402, -5.184e-9
-0.403, -5.197e-9
-0.404, -5.209e-9
-0.405, -5.221e-9
-0.406, -5.238e-9
-0.407, -5.250e-9
-0.408, -5.264e-9
-0.409, -5.282e-9
-0.410, -5.298e-9
-0.411, -5.314e-9
-0.412, -5.325e-9
-0.413, -5.336e-9
-0.414, -5.353e-9
-0.415, -5.371e-9
-0.416, -5.385e-9
-0.417, -5.406e-9
-0.418, -5.431e-9
-0.419, -5.441e-9
-0.420, -5.455e-9
-0.421, -5.472e-9
-0.422, -5.487e-9
-0.423, -5.500e-9
-0.424, -5.510e-9
-0.425, -5.528e-9
-0.426, -5.544e-9
-0.427, -5.558e-9
-0.428, -5.566e-9
-0.429, -5.573e-9
-0.430, -5.592e-9
-0.431, -5.606e-9
-0.432, -5.616e-9
-0.433, -5.631e-9
-0.434, -5.651e-9
-0.435, -5.668e-9
-0.436, -5.679e-9
-0.437, -5.691e-9
-0.438, -5.702e-9
-0.439, -5.719e-9
-0.440, -5.734e-9
-0.441, -5.748e-9
-0.442, -5.761e-9
-0.443, -5.776e-9
-0.444, -5.789e-9
-0.445, -5.801e-9
-0.446, -5.814e-9
-0.447, -5.834e-9
-0.448, -5.851e-9
-0.449, -5.868e-9
-0.450, -5.883e-9
-0.451, -5.903e-9
-0.452, -5.922e-9
-0.453, -5.936e-9
-0.454, -5.950e-9
-0.455, -5.963e-9
-0.456, -5.977e-9
-0.457, -5.994e-9
-0.458, -6.013e-9
-0.459, -6.031e-9
-0.460, -6.046e-9
-0.461, -6.060e-9
-0.462, -6.072e-9
-0.463, -6.084e-9
-0.464, -6.101e-9
-0.465, -6.122e-9
-0.466, -6.137e-9
-0.467, -6.148e-9
-0.468, -6.164e-9
-0.469, -6.182e-9
-0.470, -6.192e-9
-0.471, -6.202e-9
-0.472, -6.218e-9
-0.473, -6.238e-9
-0.474, -6.251e-9
-0.475, -6.268e-9
-0.476, -6.284e-9
-0.477, -6.308e-9
-0.478, -6.324e-9
-0.479, -6.340e-9
-0.480, -6.355e-9
-0.481, -6.369e-9
-0.482, -6.389e-9
-0.483, -6.406e-9
-0.484, -6.418e-9
-0.485, -6.434e-9
-0.486, -6.448e-9
-0.487, -6.464e-9
-0.488, -6.482e-9
-0.489, -6.495e-9
-0.490, -6.501e-9
-0.491, -6.510e-9
-0.492, -6.534e-9
-0.493, -6.551e-9
-0.494, -6.559e-9
-0.495, -6.571e-9
-0.496, -6.590e-9
-0.497, -6.603e-9
-0.498, -6.613e-9
-0.499, -6.623e-9
