Mar. 6, 2025   16:15:29
Cyclic Voltammetry
File: cv surface (incubation) (10).bin
Data Source:  Experiment
Instrument Model:  CHI920C
Ref. Electrode: 
Header: 
Note: 

Init E (V) = -0.5
High E (V) = 0.5
Low E (V) = -0.5
Init P/N = P
Scan Rate (V/s) = 0.05
Segment = 2
Sample Interval (V) = 0.001
Quiet Time (sec) = 10
Sensitivity (A/V) = 1e-7

Results:

Channel 1:
Segment 1:

Segment 2:

Potential/V, Current/A

-0.500, -4.528e-9
-0.499, -4.474e-9
-0.498, -4.431e-9
-0.497, -4.404e-9
-0.496, -4.374e-9
-0.495, -4.338e-9
-0.494, -4.312e-9
-0.493, -4.288e-9
-0.492, -4.253e-9
-0.491, -4.216e-9
-0.490, -4.196e-9
-0.489, -4.176e-9
-0.488, -4.149e-9
-0.487, -4.113e-9
-0.486, -4.089e-9
-0.485, -4.066e-9
-0.484, -4.043e-9
-0.483, -4.016e-9
-0.482, -3.989e-9
-0.481, -3.966e-9
-0.480, -3.943e-9
-0.479, -3.912e-9
-0.478, -3.886e-9
-0.477, -3.863e-9
-0.476, -3.835e-9
-0.475, -3.808e-9
-0.474, -3.781e-9
-0.473, -3.760e-9
-0.472, -3.741e-9
-0.471, -3.720e-9
-0.470, -3.688e-9
-0.469, -3.656e-9
-0.468, -3.633e-9
-0.467, -3.609e-9
-0.466, -3.582e-9
-0.465, -3.561e-9
-0.464, -3.540e-9
-0.463, -3.517e-9
-0.462, -3.498e-9
-0.461, -3.474e-9
-0.460, -3.454e-9
-0.459, -3.432e-9
-0.458, -3.407e-9
-0.457, -3.385e-9
-0.456, -3.363e-9
-0.455, -3.347e-9
-0.454, -3.323e-9
-0.453, -3.301e-9
-0.452, -3.282e-9
-0.451, -3.255e-9
-0.450, -3.236e-9
-0.449, -3.219e-9
-0.448, -3.202e-9
-0.447, -3.186e-9
-0.446, -3.168e-9
-0.445, -3.146e-9
-0.444, -3.124e-9
-0.443, -3.108e-9
-0.442, -3.086e-9
-0.441, -3.066e-9
-0.440, -3.053e-9
-0.439, -3.031e-9
-0.438, -3.013e-9
-0.437, -2.991e-9
-0.436, -2.972e-9
-0.435, -2.953e-9
-0.434, -2.928e-9
-0.433, -2.906e-9
-0.432, -2.891e-9
-0.431, -2.881e-9
-0.430, -2.860e-9
-0.429, -2.835e-9
-0.428, -2.814e-9
-0.427, -2.800e-9
-0.426, -2.781e-9
-0.425, -2.760e-9
-0.424, -2.736e-9
-0.423, -2.721e-9
-0.422, -2.708e-9
-0.421, -2.688e-9
-0.420, -2.669e-9
-0.419, -2.655e-9
-0.418, -2.634e-9
-0.417, -2.615e-9
-0.416, -2.591e-9
-0.415, -2.573e-9
-0.414, -2.560e-9
-0.413, -2.544e-9
-0.412, -2.525e-9
-0.411, -2.505e-9
-0.410, -2.488e-9
-0.409, -2.474e-9
-0.408, -2.456e-9
-0.407, -2.435e-9
-0.406, -2.421e-9
-0.405, -2.411e-9
-0.404, -2.398e-9
-0.403, -2.374e-9
-0.402, -2.353e-9
-0.401, -2.345e-9
-0.400, -2.326e-9
-0.399, -2.304e-9
-0.398, -2.288e-9
-0.397, -2.280e-9
-0.396, -2.267e-9
-0.395, -2.246e-9
-0.394, -2.223e-9
-0.393, -2.207e-9
-0.392, -2.194e-9
-0.391, -2.179e-9
-0.390, -2.161e-9
-0.389, -2.147e-9
-0.388, -2.139e-9
-0.387, -2.126e-9
-0.386, -2.108e-9
-0.385, -2.089e-9
-0.384, -2.074e-9
-0.383, -2.065e-9
-0.382, -2.048e-9
-0.381, -2.031e-9
-0.380, -2.021e-9
-0.379, -2.011e-9
-0.378, -1.995e-9
-0.377, -1.973e-9
-0.376, -1.961e-9
-0.375, -1.954e-9
-0.374, -1.940e-9
-0.373, -1.922e-9
-0.372, -1.910e-9
-0.371, -1.902e-9
-0.370, -1.886e-9
-0.369, -1.865e-9
-0.368, -1.851e-9
-0.367, -1.845e-9
-0.366, -1.834e-9
-0.365, -1.818e-9
-0.364, -1.804e-9
-0.363, -1.796e-9
-0.362, -1.786e-9
-0.361, -1.771e-9
-0.360, -1.756e-9
-0.359, -1.745e-9
-0.358, -1.736e-9
-0.357, -1.721e-9
-0.356, -1.705e-9
-0.355, -1.694e-9
-0.354, -1.686e-9
-0.353, -1.674e-9
-0.352, -1.662e-9
-0.351, -1.651e-9
-0.350, -1.643e-9
-0.349, -1.631e-9
-0.348, -1.616e-9
-0.347, -1.605e-9
-0.346, -1.600e-9
-0.345, -1.589e-9
-0.344, -1.574e-9
-0.343, -1.562e-9
-0.342, -1.555e-9
-0.341, -1.546e-9
-0.340, -1.531e-9
-0.339, -1.518e-9
-0.338, -1.510e-9
-0.337, -1.502e-9
-0.336, -1.487e-9
-0.335, -1.473e-9
-0.334, -1.465e-9
-0.333, -1.458e-9
-0.332, -1.444e-9
-0.331, -1.430e-9
-0.330, -1.421e-9
-0.329, -1.414e-9
-0.328, -1.404e-9
-0.327, -1.390e-9
-0.326, -1.380e-9
-0.325, -1.374e-9
-0.324, -1.365e-9
-0.323, -1.352e-9
-0.322, -1.341e-9
-0.321, -1.334e-9
-0.320, -1.325e-9
-0.319, -1.314e-9
-0.318, -1.305e-9
-0.317, -1.298e-9
-0.316, -1.291e-9
-0.315, -1.281e-9
-0.314, -1.267e-9
-0.313, -1.257e-9
-0.312, -1.248e-9
-0.311, -1.237e-9
-0.310, -1.225e-9
-0.309, -1.215e-9
-0.308, -1.208e-9
-0.307, -1.196e-9
-0.306, -1.186e-9
-0.305, -1.178e-9
-0.304, -1.173e-9
-0.303, -1.165e-9
-0.302, -1.154e-9
-0.301, -1.145e-9
-0.300, -1.140e-9
-0.299, -1.131e-9
-0.298, -1.120e-9
-0.297, -1.111e-9
-0.296, -1.106e-9
-0.295, -1.099e-9
-0.294, -1.087e-9
-0.293, -1.078e-9
-0.292, -1.075e-9
-0.291, -1.070e-9
-0.290, -1.058e-9
-0.289, -1.048e-9
-0.288, -1.042e-9
-0.287, -1.037e-9
-0.286, -1.027e-9
-0.285, -1.015e-9
-0.284, -1.008e-9
-0.283, -1.004e-9
-0.282, -9.934e-10
-0.281, -9.810e-10
-0.280, -9.742e-10
-0.279, -9.698e-10
-0.278, -9.613e-10
-0.277, -9.496e-10
-0.276, -9.417e-10
-0.275, -9.384e-10
-0.274, -9.335e-10
-0.273, -9.217e-10
-0.272, -9.132e-10
-0.271, -9.110e-10
-0.270, -9.062e-10
-0.269, -8.951e-10
-0.268, -8.858e-10
-0.267, -8.841e-10
-0.266, -8.799e-10
-0.265, -8.696e-10
-0.264, -8.579e-10
-0.263, -8.553e-10
-0.262, -8.528e-10
-0.261, -8.418e-10
-0.260, -8.322e-10
-0.259, -8.298e-10
-0.258, -8.280e-10
-0.257, -8.197e-10
-0.256, -8.095e-10
-0.255, -8.067e-10
-0.254, -8.046e-10
-0.253, -7.978e-10
-0.252, -7.856e-10
-0.251, -7.816e-10
-0.250, -7.811e-10
-0.249, -7.755e-10
-0.248, -7.642e-10
-0.247, -7.568e-10
-0.246, -7.550e-10
-0.245, -7.483e-10
-0.244, -7.379e-10
-0.243, -7.305e-10
-0.242, -7.286e-10
-0.241, -7.239e-10
-0.240, -7.148e-10
-0.239, -7.077e-10
-0.238, -7.065e-10
-0.237, -7.035e-10
-0.236, -6.928e-10
-0.235, -6.853e-10
-0.234, -6.838e-10
-0.233, -6.830e-10
-0.232, -6.751e-10
-0.231, -6.680e-10
-0.230, -6.682e-10
-0.229, -6.672e-10
-0.228, -6.564e-10
-0.227, -6.488e-10
-0.226, -6.470e-10
-0.225, -6.457e-10
-0.224, -6.368e-10
-0.223, -6.275e-10
-0.222, -6.270e-10
-0.221, -6.252e-10
-0.220, -6.177e-10
-0.219, -6.060e-10
-0.218, -6.044e-10
-0.217, -6.049e-10
-0.216, -5.984e-10
-0.215, -5.878e-10
-0.214, -5.850e-10
-0.213, -5.852e-10
-0.212, -5.817e-10
-0.211, -5.708e-10
-0.210, -5.650e-10
-0.209, -5.665e-10
-0.208, -5.654e-10
-0.207, -5.539e-10
-0.206, -5.465e-10
-0.205, -5.479e-10
-0.204, -5.475e-10
-0.203, -5.375e-10
-0.202, -5.265e-10
-0.201, -5.246e-10
-0.200, -5.251e-10
-0.199, -5.172e-10
-0.198, -5.061e-10
-0.197, -5.031e-10
-0.196, -5.042e-10
-0.195, -4.984e-10
-0.194, -4.851e-10
-0.193, -4.804e-10
-0.192, -4.835e-10
-0.191, -4.811e-10
-0.190, -4.709e-10
-0.189, -4.635e-10
-0.188, -4.644e-10
-0.187, -4.631e-10
-0.186, -4.532e-10
-0.185, -4.454e-10
-0.184, -4.464e-10
-0.183, -4.478e-10
-0.182, -4.400e-10
-0.181, -4.295e-10
-0.180, -4.278e-10
-0.179, -4.305e-10
-0.178, -4.248e-10
-0.177, -4.144e-10
-0.176, -4.125e-10
-0.175, -4.132e-10
-0.174, -4.103e-10
-0.173, -4.011e-10
-0.172, -3.947e-10
-0.171, -3.951e-10
-0.170, -3.958e-10
-0.169, -3.875e-10
-0.168, -3.781e-10
-0.167, -3.768e-10
-0.166, -3.774e-10
-0.165, -3.720e-10
-0.164, -3.634e-10
-0.163, -3.599e-10
-0.162, -3.602e-10
-0.161, -3.578e-10
-0.160, -3.504e-10
-0.159, -3.455e-10
-0.158, -3.460e-10
-0.157, -3.449e-10
-0.156, -3.374e-10
-0.155, -3.299e-10
-0.154, -3.302e-10
-0.153, -3.309e-10
-0.152, -3.264e-10
-0.151, -3.185e-10
-0.150, -3.164e-10
-0.149, -3.146e-10
-0.148, -3.105e-10
-0.147, -3.030e-10
-0.146, -3.000e-10
-0.145, -3.005e-10
-0.144, -2.978e-10
-0.143, -2.875e-10
-0.142, -2.819e-10
-0.141, -2.833e-10
-0.140, -2.826e-10
-0.139, -2.732e-10
-0.138, -2.656e-10
-0.137, -2.661e-10
-0.136, -2.658e-10
-0.135, -2.584e-10
-0.134, -2.494e-10
-0.133, -2.502e-10
-0.132, -2.508e-10
-0.131, -2.446e-10
-0.130, -2.354e-10
-0.129, -2.343e-10
-0.128, -2.365e-10
-0.127, -2.314e-10
-0.126, -2.238e-10
-0.125, -2.212e-10
-0.124, -2.196e-10
-0.123, -2.171e-10
-0.122, -2.113e-10
-0.121, -2.061e-10
-0.120, -2.067e-10
-0.119, -2.056e-10
-0.118, -2.000e-10
-0.117, -1.943e-10
-0.116, -1.941e-10
-0.115, -1.941e-10
-0.114, -1.892e-10
-0.113, -1.832e-10
-0.112, -1.823e-10
-0.111, -1.833e-10
-0.110, -1.783e-10
-0.109, -1.707e-10
-0.108, -1.696e-10
-0.107, -1.705e-10
-0.106, -1.658e-10
-0.105, -1.595e-10
-0.104, -1.559e-10
-0.103, -1.564e-10
-0.102, -1.513e-10
-0.101, -1.460e-10
-0.100, -1.411e-10
-0.099, -1.417e-10
-0.098, -1.397e-10
-0.097, -1.336e-10
-0.096, -1.286e-10
-0.095, -1.292e-10
-0.094, -1.289e-10
-0.093, -1.230e-10
-0.092, -1.165e-10
-0.091, -1.163e-10
-0.090, -1.178e-10
-0.089, -1.140e-10
-0.088, -1.064e-10
-0.087, -1.039e-10
-0.086, -1.059e-10
-0.085, -1.053e-10
-0.084, -9.832e-11
-0.083, -9.647e-11
-0.082, -9.793e-11
-0.081, -9.481e-11
-0.080, -8.721e-11
-0.079, -8.389e-11
-0.078, -8.730e-11
-0.077, -8.740e-11
-0.076, -8.009e-11
-0.075, -7.424e-11
-0.074, -7.522e-11
-0.073, -7.512e-11
-0.072, -6.898e-11
-0.071, -6.313e-11
-0.070, -6.352e-11
-0.069, -6.527e-11
-0.068, -6.050e-11
-0.067, -5.172e-11
-0.066, -5.065e-11
-0.065, -5.221e-11
-0.064, -4.695e-11
-0.063, -2.599e-11
-0.062, -4.543e-12
-0.061, 1.378e-11
-0.060, 2.236e-11
-0.059, 2.646e-11
-0.058, 2.919e-11
-0.057, 3.182e-11
-0.056, 3.201e-11
-0.055, 3.806e-11
-0.054, 4.186e-11
-0.053, 3.854e-11
-0.052, 2.977e-11
-0.051, 1.398e-11
-0.050, 7.545e-12
-0.049, 1.014e-12
-0.048, -5.030e-12
-0.047, 2.340e-13
-0.046, 6.570e-12
-0.045, 6.668e-12
-0.044, 3.158e-12
-0.043, 6.278e-12
-0.042, 1.349e-11
-0.041, 1.505e-11
-0.040, 1.193e-11
-0.039, 1.486e-11
-0.038, 2.168e-11
-0.037, 2.460e-11
-0.036, 2.353e-11
-0.035, 2.178e-11
-0.034, 2.607e-11
-0.033, 3.279e-11
-0.032, 4.264e-11
-0.031, 5.014e-11
-0.030, 5.229e-11
-0.029, 5.297e-11
-0.028, 7.676e-11
-0.027, 8.719e-11
-0.026, 8.914e-11
-0.025, 1.008e-10
-0.024, 1.082e-10
-0.023, 8.563e-11
-0.022, 6.935e-11
-0.021, 6.964e-11
-0.020, 7.013e-11
-0.019, 6.759e-11
-0.018, 6.750e-11
-0.017, 6.925e-11
-0.016, 7.218e-11
-0.015, 6.935e-11
-0.014, 7.013e-11
-0.013, 7.227e-11
-0.012, 7.413e-11
-0.011, 7.296e-11
-0.010, 7.656e-11
-0.009, 7.939e-11
-0.008, 8.124e-11
-0.007, 8.114e-11
-0.006, 8.231e-11
-0.005, 8.806e-11
-0.004, 8.768e-11
-0.003, 8.729e-11
-0.002, 9.089e-11
-0.001, 9.508e-11
0.000, 9.440e-11
0.001, 9.304e-11
0.002, 9.538e-11
0.003, 9.937e-11
0.004, 1.020e-10
0.005, 1.049e-10
0.006, 1.079e-10
0.007, 1.114e-10
0.008, 1.144e-10
0.009, 1.166e-10
0.010, 1.199e-10
0.011, 1.215e-10
0.012, 1.220e-10
0.013, 1.220e-10
0.014, 1.232e-10
0.015, 1.276e-10
0.016, 1.315e-10
0.017, 1.271e-10
0.018, 1.279e-10
0.019, 1.295e-10
0.020, 1.301e-10
0.021, 1.421e-10
0.022, 1.545e-10
0.023, 1.649e-10
0.024, 1.655e-10
0.025, 1.587e-10
0.026, 1.546e-10
0.027, 1.669e-10
0.028, 1.693e-10
0.029, 1.777e-10
0.030, 1.881e-10
0.031, 1.967e-10
0.032, 2.018e-10
0.033, 2.029e-10
0.034, 2.038e-10
0.035, 2.025e-10
0.036, 2.090e-10
0.037, 2.137e-10
0.038, 2.154e-10
0.039, 2.126e-10
0.040, 2.113e-10
0.041, 2.106e-10
0.042, 2.046e-10
0.043, 2.061e-10
0.044, 2.137e-10
0.045, 2.144e-10
0.046, 2.180e-10
0.047, 2.194e-10
0.048, 2.222e-10
0.049, 2.211e-10
0.050, 2.192e-10
0.051, 2.260e-10
0.052, 2.295e-10
0.053, 2.270e-10
0.054, 2.241e-10
0.055, 2.250e-10
0.056, 2.287e-10
0.057, 2.280e-10
0.058, 2.261e-10
0.059, 2.244e-10
0.060, 2.207e-10
0.061, 2.174e-10
0.062, 2.114e-10
0.063, 2.138e-10
0.064, 2.173e-10
0.065, 2.173e-10
0.066, 2.159e-10
0.067, 2.176e-10
0.068, 2.289e-10
0.069, 2.345e-10
0.070, 2.281e-10
0.071, 2.159e-10
0.072, 2.216e-10
0.073, 2.327e-10
0.074, 2.332e-10
0.075, 2.241e-10
0.076, 2.289e-10
0.077, 2.430e-10
0.078, 2.436e-10
0.079, 2.432e-10
0.080, 2.394e-10
0.081, 2.386e-10
0.082, 2.407e-10
0.083, 2.306e-10
0.084, 2.301e-10
0.085, 2.423e-10
0.086, 2.469e-10
0.087, 2.392e-10
0.088, 2.407e-10
0.089, 2.561e-10
0.090, 2.673e-10
0.091, 2.783e-10
0.092, 2.872e-10
0.093, 2.903e-10
0.094, 3.028e-10
0.095, 3.014e-10
0.096, 2.887e-10
0.097, 2.953e-10
0.098, 3.110e-10
0.099, 3.324e-10
0.100, 3.458e-10
0.101, 3.491e-10
0.102, 3.580e-10
0.103, 3.621e-10
0.104, 3.642e-10
0.105, 3.594e-10
0.106, 3.632e-10
0.107, 3.565e-10
0.108, 3.472e-10
0.109, 3.388e-10
0.110, 3.378e-10
0.111, 3.546e-10
0.112, 3.589e-10
0.113, 3.564e-10
0.114, 3.615e-10
0.115, 3.718e-10
0.116, 3.813e-10
0.117, 3.788e-10
0.118, 3.702e-10
0.119, 3.686e-10
0.120, 3.652e-10
0.121, 3.626e-10
0.122, 3.635e-10
0.123, 3.840e-10
0.124, 4.002e-10
0.125, 4.196e-10
0.126, 4.291e-10
0.127, 4.609e-10
0.128, 4.771e-10
0.129, 4.663e-10
0.130, 4.772e-10
0.131, 4.905e-10
0.132, 5.125e-10
0.133, 5.139e-10
0.134, 5.222e-10
0.135, 5.404e-10
0.136, 5.530e-10
0.137, 5.497e-10
0.138, 5.655e-10
0.139, 5.647e-10
0.140, 5.614e-10
0.141, 5.662e-10
0.142, 5.624e-10
0.143, 5.645e-10
0.144, 5.953e-10
0.145, 6.093e-10
0.146, 6.165e-10
0.147, 6.209e-10
0.148, 6.159e-10
0.149, 6.344e-10
0.150, 6.566e-10
0.151, 6.675e-10
0.152, 6.806e-10
0.153, 7.050e-10
0.154, 7.293e-10
0.155, 7.412e-10
0.156, 7.496e-10
0.157, 7.554e-10
0.158, 7.702e-10
0.159, 7.845e-10
0.160, 7.864e-10
0.161, 7.845e-10
0.162, 8.114e-10
0.163, 8.442e-10
0.164, 8.708e-10
0.165, 8.769e-10
0.166, 8.743e-10
0.167, 8.768e-10
0.168, 8.859e-10
0.169, 8.887e-10
0.170, 9.027e-10
0.171, 9.284e-10
0.172, 9.463e-10
0.173, 9.537e-10
0.174, 9.629e-10
0.175, 9.642e-10
0.176, 9.739e-10
0.177, 9.852e-10
0.178, 9.886e-10
0.179, 9.831e-10
0.180, 9.916e-10
0.181, 9.969e-10
0.182, 9.902e-10
0.183, 9.877e-10
0.184, 1.000e-9
0.185, 1.006e-9
0.186, 1.009e-9
0.187, 1.023e-9
0.188, 1.037e-9
0.189, 1.041e-9
0.190, 1.035e-9
0.191, 1.026e-9
0.192, 1.029e-9
0.193, 1.044e-9
0.194, 1.050e-9
0.195, 1.054e-9
0.196, 1.059e-9
0.197, 1.071e-9
0.198, 1.065e-9
0.199, 1.068e-9
0.200, 1.072e-9
0.201, 1.066e-9
0.202, 1.078e-9
0.203, 1.085e-9
0.204, 1.080e-9
0.205, 1.062e-9
0.206, 1.079e-9
0.207, 1.138e-9
0.208, 1.181e-9
0.209, 1.185e-9
0.210, 1.191e-9
0.211, 1.209e-9
0.212, 1.221e-9
0.213, 1.224e-9
0.214, 1.238e-9
0.215, 1.247e-9
0.216, 1.241e-9
0.217, 1.243e-9
0.218, 1.253e-9
0.219, 1.253e-9
0.220, 1.256e-9
0.221, 1.252e-9
0.222, 1.245e-9
0.223, 1.246e-9
0.224, 1.250e-9
0.225, 1.258e-9
0.226, 1.253e-9
0.227, 1.248e-9
0.228, 1.262e-9
0.229, 1.279e-9
0.230, 1.293e-9
0.231, 1.284e-9
0.232, 1.288e-9
0.233, 1.301e-9
0.234, 1.298e-9
0.235, 1.290e-9
0.236, 1.292e-9
0.237, 1.302e-9
0.238, 1.326e-9
0.239, 1.335e-9
0.240, 1.337e-9
0.241, 1.344e-9
0.242, 1.340e-9
0.243, 1.333e-9
0.244, 1.334e-9
0.245, 1.342e-9
0.246, 1.343e-9
0.247, 1.347e-9
0.248, 1.344e-9
0.249, 1.354e-9
0.250, 1.362e-9
0.251, 1.365e-9
0.252, 1.358e-9
0.253, 1.358e-9
0.254, 1.372e-9
0.255, 1.376e-9
0.256, 1.372e-9
0.257, 1.376e-9
0.258, 1.385e-9
0.259, 1.394e-9
0.260, 1.390e-9
0.261, 1.393e-9
0.262, 1.402e-9
0.263, 1.408e-9
0.264, 1.404e-9
0.265, 1.409e-9
0.266, 1.412e-9
0.267, 1.411e-9
0.268, 1.414e-9
0.269, 1.414e-9
0.270, 1.421e-9
0.271, 1.426e-9
0.272, 1.428e-9
0.273, 1.430e-9
0.274, 1.432e-9
0.275, 1.451e-9
0.276, 1.454e-9
0.277, 1.447e-9
0.278, 1.445e-9
0.279, 1.450e-9
0.280, 1.453e-9
0.281, 1.452e-9
0.282, 1.455e-9
0.283, 1.461e-9
0.284, 1.469e-9
0.285, 1.468e-9
0.286, 1.464e-9
0.287, 1.477e-9
0.288, 1.483e-9
0.289, 1.484e-9
0.290, 1.487e-9
0.291, 1.488e-9
0.292, 1.491e-9
0.293, 1.495e-9
0.294, 1.500e-9
0.295, 1.506e-9
0.296, 1.515e-9
0.297, 1.513e-9
0.298, 1.510e-9
0.299, 1.519e-9
0.300, 1.524e-9
0.301, 1.536e-9
0.302, 1.537e-9
0.303, 1.536e-9
0.304, 1.541e-9
0.305, 1.549e-9
0.306, 1.547e-9
0.307, 1.544e-9
0.308, 1.550e-9
0.309, 1.556e-9
0.310, 1.563e-9
0.311, 1.565e-9
0.312, 1.567e-9
0.313, 1.577e-9
0.314, 1.578e-9
0.315, 1.587e-9
0.316, 1.589e-9
0.317, 1.592e-9
0.318, 1.597e-9
0.319, 1.597e-9
0.320, 1.592e-9
0.321, 1.599e-9
0.322, 1.600e-9
0.323, 1.597e-9
0.324, 1.603e-9
0.325, 1.615e-9
0.326, 1.619e-9
0.327, 1.619e-9
0.328, 1.626e-9
0.329, 1.624e-9
0.330, 1.627e-9
0.331, 1.635e-9
0.332, 1.648e-9
0.333, 1.649e-9
0.334, 1.652e-9
0.335, 1.661e-9
0.336, 1.669e-9
0.337, 1.669e-9
0.338, 1.671e-9
0.339, 1.677e-9
0.340, 1.689e-9
0.341, 1.694e-9
0.342, 1.696e-9
0.343, 1.703e-9
0.344, 1.708e-9
0.345, 1.719e-9
0.346, 1.719e-9
0.347, 1.727e-9
0.348, 1.741e-9
0.349, 1.754e-9
0.350, 1.754e-9
0.351, 1.751e-9
0.352, 1.759e-9
0.353, 1.767e-9
0.354, 1.773e-9
0.355, 1.778e-9
0.356, 1.783e-9
0.357, 1.783e-9
0.358, 1.785e-9
0.359, 1.792e-9
0.360, 1.804e-9
0.361, 1.815e-9
0.362, 1.816e-9
0.363, 1.818e-9
0.364, 1.821e-9
0.365, 1.834e-9
0.366, 1.839e-9
0.367, 1.839e-9
0.368, 1.852e-9
0.369, 1.865e-9
0.370, 1.874e-9
0.371, 1.880e-9
0.372, 1.886e-9
0.373, 1.888e-9
0.374, 1.890e-9
0.375, 1.894e-9
0.376, 1.907e-9
0.377, 1.923e-9
0.378, 1.934e-9
0.379, 1.943e-9
0.380, 1.944e-9
0.381, 1.948e-9
0.382, 1.962e-9
0.383, 1.969e-9
0.384, 1.973e-9
0.385, 1.976e-9
0.386, 1.985e-9
0.387, 1.997e-9
0.388, 2.003e-9
0.389, 2.010e-9
0.390, 2.011e-9
0.391, 2.008e-9
0.392, 2.014e-9
0.393, 2.021e-9
0.394, 2.030e-9
0.395, 2.037e-9
0.396, 2.037e-9
0.397, 2.043e-9
0.398, 2.049e-9
0.399, 2.050e-9
0.400, 2.046e-9
0.401, 2.057e-9
0.402, 2.070e-9
0.403, 2.078e-9
0.404, 2.072e-9
0.405, 2.078e-9
0.406, 2.096e-9
0.407, 2.100e-9
0.408, 2.103e-9
0.409, 2.110e-9
0.410, 2.120e-9
0.411, 2.125e-9
0.412, 2.127e-9
0.413, 2.139e-9
0.414, 2.156e-9
0.415, 2.166e-9
0.416, 2.161e-9
0.417, 2.167e-9
0.418, 2.184e-9
0.419, 2.196e-9
0.420, 2.192e-9
0.421, 2.186e-9
0.422, 2.196e-9
0.423, 2.204e-9
0.424, 2.213e-9
0.425, 2.213e-9
0.426, 2.215e-9
0.427, 2.223e-9
0.428, 2.233e-9
0.429, 2.231e-9
0.430, 2.234e-9
0.431, 2.248e-9
0.432, 2.255e-9
0.433, 2.255e-9
0.434, 2.253e-9
0.435, 2.265e-9
0.436, 2.275e-9
0.437, 2.282e-9
0.438, 2.281e-9
0.439, 2.287e-9
0.440, 2.300e-9
0.441, 2.302e-9
0.442, 2.316e-9
0.443, 2.329e-9
0.444, 2.339e-9
0.445, 2.344e-9
0.446, 2.347e-9
0.447, 2.347e-9
0.448, 2.360e-9
0.449, 2.366e-9
0.450, 2.368e-9
0.451, 2.365e-9
0.452, 2.369e-9
0.453, 2.377e-9
0.454, 2.381e-9
0.455, 2.384e-9
0.456, 2.395e-9
0.457, 2.400e-9
0.458, 2.401e-9
0.459, 2.411e-9
0.460, 2.425e-9
0.461, 2.434e-9
0.462, 2.437e-9
0.463, 2.445e-9
0.464, 2.458e-9
0.465, 2.473e-9
0.466, 2.482e-9
0.467, 2.478e-9
0.468, 2.480e-9
0.469, 2.492e-9
0.470, 2.502e-9
0.471, 2.506e-9
0.472, 2.510e-9
0.473, 2.520e-9
0.474, 2.525e-9
0.475, 2.528e-9
0.476, 2.531e-9
0.477, 2.538e-9
0.478, 2.543e-9
0.479, 2.546e-9
0.480, 2.556e-9
0.481, 2.566e-9
0.482, 2.573e-9
0.483, 2.574e-9
0.484, 2.576e-9
0.485, 2.586e-9
0.486, 2.588e-9
0.487, 2.586e-9
0.488, 2.589e-9
0.489, 2.594e-9
0.490, 2.599e-9
0.491, 2.601e-9
0.492, 2.607e-9
0.493, 2.619e-9
0.494, 2.632e-9
0.495, 2.642e-9
0.496, 2.643e-9
0.497, 2.653e-9
0.498, 2.662e-9
0.499, 2.671e-9
0.500, 2.646e-9
0.499, 2.569e-9
0.498, 2.526e-9
0.497, 2.489e-9
0.496, 2.450e-9
0.495, 2.413e-9
0.494, 2.392e-9
0.493, 2.364e-9
0.492, 2.336e-9
0.491, 2.317e-9
0.490, 2.302e-9
0.489, 2.282e-9
0.488, 2.260e-9
0.487, 2.240e-9
0.486, 2.228e-9
0.485, 2.208e-9
0.484, 2.185e-9
0.483, 2.162e-9
0.482, 2.149e-9
0.481, 2.136e-9
0.480, 2.120e-9
0.479, 2.101e-9
0.478, 2.094e-9
0.477, 2.090e-9
0.476, 2.080e-9
0.475, 2.065e-9
0.474, 2.055e-9
0.473, 2.044e-9
0.472, 2.031e-9
0.471, 2.018e-9
0.470, 2.004e-9
0.469, 1.995e-9
0.468, 1.987e-9
0.467, 1.976e-9
0.466, 1.965e-9
0.465, 1.957e-9
0.464, 1.948e-9
0.463, 1.935e-9
0.462, 1.923e-9
0.461, 1.910e-9
0.460, 1.898e-9
0.459, 1.889e-9
0.458, 1.882e-9
0.457, 1.874e-9
0.456, 1.865e-9
0.455, 1.856e-9
0.454, 1.840e-9
0.453, 1.828e-9
0.452, 1.818e-9
0.451, 1.814e-9
0.450, 1.803e-9
0.449, 1.792e-9
0.448, 1.788e-9
0.447, 1.780e-9
0.446, 1.771e-9
0.445, 1.764e-9
0.444, 1.755e-9
0.443, 1.743e-9
0.442, 1.733e-9
0.441, 1.728e-9
0.440, 1.723e-9
0.439, 1.712e-9
0.438, 1.706e-9
0.437, 1.696e-9
0.436, 1.690e-9
0.435, 1.684e-9
0.434, 1.670e-9
0.433, 1.659e-9
0.432, 1.654e-9
0.431, 1.646e-9
0.430, 1.637e-9
0.429, 1.627e-9
0.428, 1.622e-9
0.427, 1.616e-9
0.426, 1.606e-9
0.425, 1.598e-9
0.424, 1.594e-9
0.423, 1.587e-9
0.422, 1.580e-9
0.421, 1.574e-9
0.420, 1.564e-9
0.419, 1.556e-9
0.418, 1.548e-9
0.417, 1.540e-9
0.416, 1.536e-9
0.415, 1.531e-9
0.414, 1.523e-9
0.413, 1.514e-9
0.412, 1.508e-9
0.411, 1.503e-9
0.410, 1.492e-9
0.409, 1.485e-9
0.408, 1.480e-9
0.407, 1.474e-9
0.406, 1.464e-9
0.405, 1.456e-9
0.404, 1.452e-9
0.403, 1.449e-9
0.402, 1.442e-9
0.401, 1.429e-9
0.400, 1.417e-9
0.399, 1.417e-9
0.398, 1.414e-9
0.397, 1.404e-9
0.396, 1.393e-9
0.395, 1.389e-9
0.394, 1.385e-9
0.393, 1.377e-9
0.392, 1.363e-9
0.391, 1.356e-9
0.390, 1.356e-9
0.389, 1.349e-9
0.388, 1.334e-9
0.387, 1.326e-9
0.386, 1.324e-9
0.385, 1.320e-9
0.384, 1.312e-9
0.383, 1.303e-9
0.382, 1.299e-9
0.381, 1.295e-9
0.380, 1.285e-9
0.379, 1.270e-9
0.378, 1.266e-9
0.377, 1.265e-9
0.376, 1.260e-9
0.375, 1.249e-9
0.374, 1.241e-9
0.373, 1.240e-9
0.372, 1.234e-9
0.371, 1.223e-9
0.370, 1.214e-9
0.369, 1.209e-9
0.368, 1.207e-9
0.367, 1.197e-9
0.366, 1.190e-9
0.365, 1.184e-9
0.364, 1.181e-9
0.363, 1.171e-9
0.362, 1.162e-9
0.361, 1.155e-9
0.360, 1.152e-9
0.359, 1.145e-9
0.358, 1.136e-9
0.357, 1.128e-9
0.356, 1.124e-9
0.355, 1.118e-9
0.354, 1.112e-9
0.353, 1.102e-9
0.352, 1.096e-9
0.351, 1.095e-9
0.350, 1.089e-9
0.349, 1.079e-9
0.348, 1.073e-9
0.347, 1.068e-9
0.346, 1.059e-9
0.345, 1.053e-9
0.344, 1.046e-9
0.343, 1.040e-9
0.342, 1.033e-9
0.341, 1.024e-9
0.340, 1.016e-9
0.339, 1.015e-9
0.338, 1.011e-9
0.337, 1.003e-9
0.336, 9.979e-10
0.335, 9.955e-10
0.334, 9.876e-10
0.333, 9.776e-10
0.332, 9.709e-10
0.331, 9.675e-10
0.330, 9.636e-10
0.329, 9.549e-10
0.328, 9.471e-10
0.327, 9.415e-10
0.326, 9.374e-10
0.325, 9.268e-10
0.324, 9.173e-10
0.323, 9.147e-10
0.322, 9.100e-10
0.321, 9.016e-10
0.320, 8.940e-10
0.319, 8.874e-10
0.318, 8.859e-10
0.317, 8.806e-10
0.316, 8.727e-10
0.315, 8.661e-10
0.314, 8.628e-10
0.313, 8.577e-10
0.312, 8.494e-10
0.311, 8.415e-10
0.310, 8.382e-10
0.309, 8.334e-10
0.308, 8.219e-10
0.307, 8.119e-10
0.306, 8.099e-10
0.305, 8.092e-10
0.304, 7.996e-10
0.303, 7.914e-10
0.302, 7.910e-10
0.301, 7.883e-10
0.300, 7.779e-10
0.299, 7.684e-10
0.298, 7.661e-10
0.297, 7.663e-10
0.296, 7.604e-10
0.295, 7.490e-10
0.294, 7.434e-10
0.293, 7.440e-10
0.292, 7.401e-10
0.291, 7.271e-10
0.290, 7.189e-10
0.289, 7.194e-10
0.288, 7.165e-10
0.287, 7.070e-10
0.286, 6.981e-10
0.285, 6.987e-10
0.284, 6.962e-10
0.283, 6.847e-10
0.282, 6.739e-10
0.281, 6.745e-10
0.280, 6.739e-10
0.279, 6.644e-10
0.278, 6.534e-10
0.277, 6.492e-10
0.276, 6.498e-10
0.275, 6.445e-10
0.274, 6.342e-10
0.273, 6.299e-10
0.272, 6.333e-10
0.271, 6.290e-10
0.270, 6.154e-10
0.269, 6.097e-10
0.268, 6.116e-10
0.267, 6.073e-10
0.266, 5.975e-10
0.265, 5.898e-10
0.264, 5.911e-10
0.263, 5.880e-10
0.262, 5.780e-10
0.261, 5.679e-10
0.260, 5.686e-10
0.259, 5.667e-10
0.258, 5.570e-10
0.257, 5.472e-10
0.256, 5.481e-10
0.255, 5.475e-10
0.254, 5.389e-10
0.253, 5.289e-10
0.252, 5.274e-10
0.251, 5.265e-10
0.250, 5.194e-10
0.249, 5.092e-10
0.248, 5.056e-10
0.247, 5.062e-10
0.246, 4.999e-10
0.245, 4.891e-10
0.244, 4.839e-10
0.243, 4.849e-10
0.242, 4.805e-10
0.241, 4.700e-10
0.240, 4.604e-10
0.239, 4.585e-10
0.238, 4.564e-10
0.237, 4.468e-10
0.236, 4.384e-10
0.235, 4.366e-10
0.234, 4.346e-10
0.233, 4.260e-10
0.232, 4.188e-10
0.231, 4.177e-10
0.230, 4.166e-10
0.229, 4.092e-10
0.228, 4.019e-10
0.227, 4.012e-10
0.226, 3.993e-10
0.225, 3.928e-10
0.224, 3.857e-10
0.223, 3.849e-10
0.222, 3.835e-10
0.221, 3.768e-10
0.220, 3.698e-10
0.219, 3.689e-10
0.218, 3.684e-10
0.217, 3.604e-10
0.216, 3.512e-10
0.215, 3.500e-10
0.214, 3.502e-10
0.213, 3.443e-10
0.212, 3.356e-10
0.211, 3.334e-10
0.210, 3.333e-10
0.209, 3.281e-10
0.208, 3.192e-10
0.207, 3.151e-10
0.206, 3.147e-10
0.205, 3.103e-10
0.204, 3.024e-10
0.203, 2.969e-10
0.202, 2.966e-10
0.201, 2.942e-10
0.200, 2.863e-10
0.199, 2.810e-10
0.198, 2.817e-10
0.197, 2.785e-10
0.196, 2.706e-10
0.195, 2.646e-10
0.194, 2.644e-10
0.193, 2.638e-10
0.192, 2.557e-10
0.191, 2.471e-10
0.190, 2.464e-10
0.189, 2.466e-10
0.188, 2.393e-10
0.187, 2.293e-10
0.186, 2.267e-10
0.185, 2.293e-10
0.184, 2.241e-10
0.183, 2.137e-10
0.182, 2.098e-10
0.181, 2.116e-10
0.180, 2.073e-10
0.179, 1.959e-10
0.178, 1.903e-10
0.177, 1.921e-10
0.176, 1.896e-10
0.175, 1.799e-10
0.174, 1.747e-10
0.173, 1.764e-10
0.172, 1.749e-10
0.171, 1.671e-10
0.170, 1.613e-10
0.169, 1.602e-10
0.168, 1.591e-10
0.167, 1.527e-10
0.166, 1.458e-10
0.165, 1.460e-10
0.164, 1.457e-10
0.163, 1.414e-10
0.162, 1.340e-10
0.161, 1.312e-10
0.160, 1.311e-10
0.159, 1.270e-10
0.158, 1.191e-10
0.157, 1.150e-10
0.156, 1.159e-10
0.155, 1.128e-10
0.154, 1.061e-10
0.153, 1.008e-10
0.152, 1.005e-10
0.151, 9.928e-11
0.150, 9.099e-11
0.149, 8.407e-11
0.148, 8.261e-11
0.147, 8.192e-11
0.146, 7.578e-11
0.145, 6.896e-11
0.144, 6.711e-11
0.143, 6.779e-11
0.142, 6.262e-11
0.141, 5.326e-11
0.140, 5.005e-11
0.139, 5.063e-11
0.138, 4.858e-11
0.137, 4.098e-11
0.136, 3.591e-11
0.135, 3.581e-11
0.134, 3.348e-11
0.133, 2.626e-11
0.132, 2.051e-11
0.131, 2.119e-11
0.130, 1.866e-11
0.129, 1.193e-11
0.128, 6.083e-12
0.127, 5.498e-12
0.126, 3.548e-12
0.125, -4.543e-12
0.124, -1.117e-11
0.123, -1.429e-11
0.122, -1.595e-11
0.121, -2.111e-11
0.120, -2.696e-11
0.119, -2.979e-11
0.118, -3.155e-11
0.117, -3.583e-11
0.116, -4.188e-11
0.115, -4.471e-11
0.114, -4.636e-11
0.113, -5.202e-11
0.112, -5.845e-11
0.111, -6.293e-11
0.110, -6.459e-11
0.109, -6.927e-11
0.108, -7.697e-11
0.107, -8.126e-11
0.106, -7.951e-11
0.105, -8.097e-11
0.104, -8.818e-11
0.103, -9.384e-11
0.102, -9.530e-11
0.101, -9.627e-11
0.100, -1.023e-10
0.099, -1.079e-10
0.098, -1.073e-10
0.097, -1.079e-10
0.096, -1.151e-10
0.095, -1.217e-10
0.094, -1.235e-10
0.093, -1.236e-10
0.092, -1.284e-10
0.091, -1.360e-10
0.090, -1.397e-10
0.089, -1.393e-10
0.088, -1.435e-10
0.087, -1.501e-10
0.086, -1.526e-10
0.085, -1.543e-10
0.084, -1.563e-10
0.083, -1.630e-10
0.082, -1.665e-10
0.081, -1.690e-10
0.080, -1.726e-10
0.079, -1.778e-10
0.078, -1.809e-10
0.077, -1.837e-10
0.076, -1.888e-10
0.075, -1.933e-10
0.074, -1.962e-10
0.073, -1.980e-10
0.072, -2.028e-10
0.071, -2.089e-10
0.070, -2.114e-10
0.069, -2.124e-10
0.068, -2.173e-10
0.067, -2.235e-10
0.066, -2.279e-10
0.065, -2.288e-10
0.064, -2.307e-10
0.063, -2.394e-10
0.062, -2.456e-10
0.061, -2.443e-10
0.060, -2.461e-10
0.059, -2.545e-10
0.058, -2.630e-10
0.057, -2.636e-10
0.056, -2.635e-10
0.055, -2.708e-10
0.054, -2.796e-10
0.053, -2.830e-10
0.052, -2.818e-10
0.051, -2.864e-10
0.050, -2.962e-10
0.049, -3.015e-10
0.048, -3.006e-10
0.047, -3.024e-10
0.046, -3.110e-10
0.045, -3.172e-10
0.044, -3.170e-10
0.043, -3.178e-10
0.042, -3.238e-10
0.041, -3.318e-10
0.040, -3.330e-10
0.039, -3.335e-10
0.038, -3.391e-10
0.037, -3.481e-10
0.036, -3.506e-10
0.035, -3.489e-10
0.034, -3.531e-10
0.033, -3.609e-10
0.032, -3.646e-10
0.031, -3.651e-10
0.030, -3.679e-10
0.029, -3.755e-10
0.028, -3.828e-10
0.027, -3.836e-10
0.026, -3.859e-10
0.025, -3.926e-10
0.024, -3.995e-10
0.023, -4.019e-10
0.022, -4.012e-10
0.021, -4.090e-10
0.020, -4.166e-10
0.019, -4.210e-10
0.018, -4.215e-10
0.017, -4.270e-10
0.016, -4.352e-10
0.015, -4.402e-10
0.014, -4.390e-10
0.013, -4.424e-10
0.012, -4.520e-10
0.011, -4.578e-10
0.010, -4.578e-10
0.009, -4.609e-10
0.008, -4.701e-10
0.007, -4.774e-10
0.006, -4.759e-10
0.005, -4.777e-10
0.004, -4.887e-10
0.003, -4.984e-10
0.002, -4.976e-10
0.001, -4.988e-10
-0.000, -5.073e-10
-0.001, -5.198e-10
-0.002, -5.208e-10
-0.003, -5.205e-10
-0.004, -5.291e-10
-0.005, -5.425e-10
-0.006, -5.449e-10
-0.007, -5.443e-10
-0.008, -5.500e-10
-0.009, -5.614e-10
-0.010, -5.679e-10
-0.011, -5.664e-10
-0.012, -5.686e-10
-0.013, -5.784e-10
-0.014, -5.873e-10
-0.015, -5.862e-10
-0.016, -5.874e-10
-0.017, -5.954e-10
-0.018, -6.068e-10
-0.019, -6.086e-10
-0.020, -6.090e-10
-0.021, -6.174e-10
-0.022, -6.281e-10
-0.023, -6.313e-10
-0.024, -6.313e-10
-0.025, -6.366e-10
-0.026, -6.460e-10
-0.027, -6.526e-10
-0.028, -6.525e-10
-0.029, -6.570e-10
-0.030, -6.669e-10
-0.031, -6.744e-10
-0.032, -6.755e-10
-0.033, -6.784e-10
-0.034, -6.888e-10
-0.035, -6.971e-10
-0.036, -6.996e-10
-0.037, -7.021e-10
-0.038, -7.101e-10
-0.039, -7.203e-10
-0.040, -7.243e-10
-0.041, -7.267e-10
-0.042, -7.336e-10
-0.043, -7.434e-10
-0.044, -7.498e-10
-0.045, -7.540e-10
-0.046, -7.591e-10
-0.047, -7.675e-10
-0.048, -7.754e-10
-0.049, -7.819e-10
-0.050, -7.854e-10
-0.051, -7.926e-10
-0.052, -8.005e-10
-0.053, -8.054e-10
-0.054, -8.088e-10
-0.055, -8.150e-10
-0.056, -8.223e-10
-0.057, -8.275e-10
-0.058, -8.317e-10
-0.059, -8.375e-10
-0.060, -8.459e-10
-0.061, -8.520e-10
-0.062, -8.559e-10
-0.063, -8.652e-10
-0.064, -8.733e-10
-0.065, -8.791e-10
-0.066, -8.854e-10
-0.067, -8.929e-10
-0.068, -9.011e-10
-0.069, -9.079e-10
-0.070, -9.112e-10
-0.071, -9.210e-10
-0.072, -9.295e-10
-0.073, -9.350e-10
-0.074, -9.396e-10
-0.075, -9.478e-10
-0.076, -9.570e-10
-0.077, -9.620e-10
-0.078, -9.681e-10
-0.079, -9.775e-10
-0.080, -9.870e-10
-0.081, -9.950e-10
-0.082, -1.000e-9
-0.083, -1.009e-9
-0.084, -1.022e-9
-0.085, -1.029e-9
-0.086, -1.034e-9
-0.087, -1.042e-9
-0.088, -1.052e-9
-0.089, -1.061e-9
-0.090, -1.065e-9
-0.091, -1.070e-9
-0.092, -1.081e-9
-0.093, -1.090e-9
-0.094, -1.096e-9
-0.095, -1.102e-9
-0.096, -1.112e-9
-0.097, -1.123e-9
-0.098, -1.129e-9
-0.099, -1.134e-9
-0.100, -1.141e-9
-0.101, -1.153e-9
-0.102, -1.161e-9
-0.103, -1.167e-9
-0.104, -1.174e-9
-0.105, -1.184e-9
-0.106, -1.192e-9
-0.107, -1.198e-9
-0.108, -1.206e-9
-0.109, -1.218e-9
-0.110, -1.231e-9
-0.111, -1.236e-9
-0.112, -1.243e-9
-0.113, -1.256e-9
-0.114, -1.268e-9
-0.115, -1.273e-9
-0.116, -1.280e-9
-0.117, -1.290e-9
-0.118, -1.301e-9
-0.119, -1.306e-9
-0.120, -1.313e-9
-0.121, -1.323e-9
-0.122, -1.333e-9
-0.123, -1.341e-9
-0.124, -1.345e-9
-0.125, -1.355e-9
-0.126, -1.366e-9
-0.127, -1.375e-9
-0.128, -1.380e-9
-0.129, -1.390e-9
-0.130, -1.402e-9
-0.131, -1.410e-9
-0.132, -1.418e-9
-0.133, -1.427e-9
-0.134, -1.440e-9
-0.135, -1.450e-9
-0.136, -1.456e-9
-0.137, -1.465e-9
-0.138, -1.478e-9
-0.139, -1.490e-9
-0.140, -1.499e-9
-0.141, -1.505e-9
-0.142, -1.519e-9
-0.143, -1.532e-9
-0.144, -1.538e-9
-0.145, -1.544e-9
-0.146, -1.556e-9
-0.147, -1.569e-9
-0.148, -1.577e-9
-0.149, -1.582e-9
-0.150, -1.592e-9
-0.151, -1.605e-9
-0.152, -1.613e-9
-0.153, -1.618e-9
-0.154, -1.628e-9
-0.155, -1.642e-9
-0.156, -1.651e-9
-0.157, -1.654e-9
-0.158, -1.662e-9
-0.159, -1.675e-9
-0.160, -1.684e-9
-0.161, -1.690e-9
-0.162, -1.700e-9
-0.163, -1.714e-9
-0.164, -1.724e-9
-0.165, -1.731e-9
-0.166, -1.743e-9
-0.167, -1.755e-9
-0.168, -1.765e-9
-0.169, -1.774e-9
-0.170, -1.783e-9
-0.171, -1.794e-9
-0.172, -1.802e-9
-0.173, -1.808e-9
-0.174, -1.816e-9
-0.175, -1.830e-9
-0.176, -1.840e-9
-0.177, -1.846e-9
-0.178, -1.857e-9
-0.179, -1.872e-9
-0.180, -1.880e-9
-0.181, -1.884e-9
-0.182, -1.894e-9
-0.183, -1.905e-9
-0.184, -1.919e-9
-0.185, -1.929e-9
-0.186, -1.935e-9
-0.187, -1.946e-9
-0.188, -1.958e-9
-0.189, -1.970e-9
-0.190, -1.976e-9
-0.191, -1.986e-9
-0.192, -2.001e-9
-0.193, -2.012e-9
-0.194, -2.019e-9
-0.195, -2.027e-9
-0.196, -2.039e-9
-0.197, -2.053e-9
-0.198, -2.059e-9
-0.199, -2.066e-9
-0.200, -2.083e-9
-0.201, -2.096e-9
-0.202, -2.104e-9
-0.203, -2.112e-9
-0.204, -2.123e-9
-0.205, -2.134e-9
-0.206, -2.142e-9
-0.207, -2.148e-9
-0.208, -2.161e-9
-0.209, -2.172e-9
-0.210, -2.178e-9
-0.211, -2.186e-9
-0.212, -2.201e-9
-0.213, -2.214e-9
-0.214, -2.228e-9
-0.215, -2.235e-9
-0.216, -2.244e-9
-0.217, -2.261e-9
-0.218, -2.271e-9
-0.219, -2.277e-9
-0.220, -2.283e-9
-0.221, -2.296e-9
-0.222, -2.308e-9
-0.223, -2.319e-9
-0.224, -2.326e-9
-0.225, -2.341e-9
-0.226, -2.360e-9
-0.227, -2.367e-9
-0.228, -2.373e-9
-0.229, -2.387e-9
-0.230, -2.402e-9
-0.231, -2.413e-9
-0.232, -2.415e-9
-0.233, -2.424e-9
-0.234, -2.441e-9
-0.235, -2.455e-9
-0.236, -2.463e-9
-0.237, -2.473e-9
-0.238, -2.490e-9
-0.239, -2.503e-9
-0.240, -2.512e-9
-0.241, -2.521e-9
-0.242, -2.531e-9
-0.243, -2.543e-9
-0.244, -2.552e-9
-0.245, -2.559e-9
-0.246, -2.570e-9
-0.247, -2.587e-9
-0.248, -2.598e-9
-0.249, -2.607e-9
-0.250, -2.620e-9
-0.251, -2.631e-9
-0.252, -2.639e-9
-0.253, -2.651e-9
-0.254, -2.663e-9
-0.255, -2.672e-9
-0.256, -2.683e-9
-0.257, -2.692e-9
-0.258, -2.704e-9
-0.259, -2.717e-9
-0.260, -2.728e-9
-0.261, -2.741e-9
-0.262, -2.758e-9
-0.263, -2.767e-9
-0.264, -2.773e-9
-0.265, -2.783e-9
-0.266, -2.792e-9
-0.267, -2.810e-9
-0.268, -2.825e-9
-0.269, -2.840e-9
-0.270, -2.854e-9
-0.271, -2.868e-9
-0.272, -2.878e-9
-0.273, -2.891e-9
-0.274, -2.897e-9
-0.275, -2.907e-9
-0.276, -2.917e-9
-0.277, -2.930e-9
-0.278, -2.938e-9
-0.279, -2.954e-9
-0.280, -2.972e-9
-0.281, -2.983e-9
-0.282, -2.991e-9
-0.283, -3.000e-9
-0.284, -3.010e-9
-0.285, -3.020e-9
-0.286, -3.036e-9
-0.287, -3.050e-9
-0.288, -3.060e-9
-0.289, -3.069e-9
-0.290, -3.079e-9
-0.291, -3.093e-9
-0.292, -3.106e-9
-0.293, -3.117e-9
-0.294, -3.131e-9
-0.295, -3.148e-9
-0.296, -3.161e-9
-0.297, -3.170e-9
-0.298, -3.179e-9
-0.299, -3.192e-9
-0.300, -3.207e-9
-0.301, -3.218e-9
-0.302, -3.231e-9
-0.303, -3.243e-9
-0.304, -3.258e-9
-0.305, -3.272e-9
-0.306, -3.285e-9
-0.307, -3.298e-9
-0.308, -3.313e-9
-0.309, -3.325e-9
-0.310, -3.338e-9
-0.311, -3.347e-9
-0.312, -3.355e-9
-0.313, -3.364e-9
-0.314, -3.376e-9
-0.315, -3.390e-9
-0.316, -3.410e-9
-0.317, -3.426e-9
-0.318, -3.445e-9
-0.319, -3.459e-9
-0.320, -3.466e-9
-0.321, -3.479e-9
-0.322, -3.492e-9
-0.323, -3.502e-9
-0.324, -3.512e-9
-0.325, -3.524e-9
-0.326, -3.538e-9
-0.327, -3.551e-9
-0.328, -3.558e-9
-0.329, -3.567e-9
-0.330, -3.589e-9
-0.331, -3.607e-9
-0.332, -3.616e-9
-0.333, -3.627e-9
-0.334, -3.645e-9
-0.335, -3.664e-9
-0.336, -3.671e-9
-0.337, -3.683e-9
-0.338, -3.694e-9
-0.339, -3.716e-9
-0.340, -3.730e-9
-0.341, -3.739e-9
-0.342, -3.751e-9
-0.343, -3.767e-9
-0.344, -3.784e-9
-0.345, -3.796e-9
-0.346, -3.804e-9
-0.347, -3.815e-9
-0.348, -3.827e-9
-0.349, -3.840e-9
-0.350, -3.846e-9
-0.351, -3.862e-9
-0.352, -3.889e-9
-0.353, -3.889e-9
-0.354, -3.891e-9
-0.355, -3.909e-9
-0.356, -3.936e-9
-0.357, -3.945e-9
-0.358, -3.950e-9
-0.359, -3.959e-9
-0.360, -3.984e-9
-0.361, -4.004e-9
-0.362, -4.010e-9
-0.363, -4.022e-9
-0.364, -4.040e-9
-0.365, -4.058e-9
-0.366, -4.066e-9
-0.367, -4.076e-9
-0.368, -4.090e-9
-0.369, -4.108e-9
-0.370, -4.122e-9
-0.371, -4.125e-9
-0.372, -4.144e-9
-0.373, -4.171e-9
-0.374, -4.193e-9
-0.375, -4.198e-9
-0.376, -4.206e-9
-0.377, -4.219e-9
-0.378, -4.238e-9
-0.379, -4.259e-9
-0.380, -4.270e-9
-0.381, -4.291e-9
-0.382, -4.310e-9
-0.383, -4.321e-9
-0.384, -4.343e-9
-0.385, -4.359e-9
-0.386, -4.377e-9
-0.387, -4.388e-9
-0.388, -4.400e-9
-0.389, -4.415e-9
-0.390, -4.436e-9
-0.391, -4.452e-9
-0.392, -4.458e-9
-0.393, -4.477e-9
-0.394, -4.492e-9
-0.395, -4.506e-9
-0.396, -4.525e-9
-0.397, -4.538e-9
-0.398, -4.550e-9
-0.399, -4.560e-9
-0.400, -4.580e-9
-0.401, -4.595e-9
-0.402, -4.611e-9
-0.403, -4.624e-9
-0.404, -4.642e-9
-0.405, -4.668e-9
-0.406, -4.687e-9
-0.407, -4.699e-9
-0.408, -4.714e-9
-0.409, -4.728e-9
-0.410, -4.739e-9
-0.411, -4.745e-9
-0.412, -4.764e-9
-0.413, -4.780e-9
-0.414, -4.804e-9
-0.415, -4.817e-9
-0.416, -4.829e-9
-0.417, -4.858e-9
-0.418, -4.873e-9
-0.419, -4.885e-9
-0.420, -4.891e-9
-0.421, -4.906e-9
-0.422, -4.928e-9
-0.423, -4.947e-9
-0.424, -4.953e-9
-0.425, -4.967e-9
-0.426, -4.989e-9
-0.427, -5.004e-9
-0.428, -5.011e-9
-0.429, -5.031e-9
-0.430, -5.051e-9
-0.431, -5.070e-9
-0.432, -5.081e-9
-0.433, -5.094e-9
-0.434, -5.113e-9
-0.435, -5.131e-9
-0.436, -5.146e-9
-0.437, -5.160e-9
-0.438, -5.174e-9
-0.439, -5.197e-9
-0.440, -5.218e-9
-0.441, -5.235e-9
-0.442, -5.250e-9
-0.443, -5.267e-9
-0.444, -5.280e-9
-0.445, -5.295e-9
-0.446, -5.315e-9
-0.447, -5.324e-9
-0.448, -5.331e-9
-0.449, -5.337e-9
-0.450, -5.365e-9
-0.451, -5.385e-9
-0.452, -5.391e-9
-0.453, -5.406e-9
-0.454, -5.422e-9
-0.455, -5.438e-9
-0.456, -5.455e-9
-0.457, -5.466e-9
-0.458, -5.482e-9
-0.459, -5.500e-9
-0.460, -5.518e-9
-0.461, -5.529e-9
-0.462, -5.546e-9
-0.463, -5.564e-9
-0.464, -5.582e-9
-0.465, -5.598e-9
-0.466, -5.611e-9
-0.467, -5.631e-9
-0.468, -5.651e-9
-0.469, -5.671e-9
-0.470, -5.693e-9
-0.471, -5.702e-9
-0.472, -5.712e-9
-0.473, -5.722e-9
-0.474, -5.739e-9
-0.475, -5.750e-9
-0.476, -5.771e-9
-0.477, -5.786e-9
-0.478, -5.805e-9
-0.479, -5.823e-9
-0.480, -5.840e-9
-0.481, -5.851e-9
-0.482, -5.868e-9
-0.483, -5.892e-9
-0.484, -5.908e-9
-0.485, -5.924e-9
-0.486, -5.941e-9
-0.487, -5.955e-9
-0.488, -5.970e-9
-0.489, -5.979e-9
-0.490, -5.995e-9
-0.491, -6.011e-9
-0.492, -6.027e-9
-0.493, -6.033e-9
-0.494, -6.040e-9
-0.495, -6.057e-9
-0.496, -6.078e-9
-0.497, -6.091e-9
-0.498, -6.103e-9
-0.499, -6.113e-9
