Mar. 6, 2025   16:14:24
Cyclic Voltammetry
File: cv surface (incubation) (9).bin
Data Source:  Experiment
Instrument Model:  CHI920C
Ref. Electrode: 
Header: 
Note: 

Init E (V) = -0.5
High E (V) = 0.5
Low E (V) = -0.5
Init P/N = P
Scan Rate (V/s) = 0.05
Segment = 2
Sample Interval (V) = 0.001
Quiet Time (sec) = 10
Sensitivity (A/V) = 1e-7

Results:

Channel 1:
Segment 1:

Segment 2:

Potential/V, Current/A

-0.500, -4.598e-9
-0.499, -4.553e-9
-0.498, -4.507e-9
-0.497, -4.470e-9
-0.496, -4.438e-9
-0.495, -4.415e-9
-0.494, -4.384e-9
-0.493, -4.349e-9
-0.492, -4.317e-9
-0.491, -4.293e-9
-0.490, -4.270e-9
-0.489, -4.239e-9
-0.488, -4.208e-9
-0.487, -4.187e-9
-0.486, -4.163e-9
-0.485, -4.133e-9
-0.484, -4.099e-9
-0.483, -4.075e-9
-0.482, -4.057e-9
-0.481, -4.030e-9
-0.480, -4.000e-9
-0.479, -3.977e-9
-0.478, -3.961e-9
-0.477, -3.937e-9
-0.476, -3.908e-9
-0.475, -3.882e-9
-0.474, -3.866e-9
-0.473, -3.845e-9
-0.472, -3.816e-9
-0.471, -3.790e-9
-0.470, -3.772e-9
-0.469, -3.753e-9
-0.468, -3.731e-9
-0.467, -3.709e-9
-0.466, -3.688e-9
-0.465, -3.661e-9
-0.464, -3.641e-9
-0.463, -3.619e-9
-0.462, -3.596e-9
-0.461, -3.574e-9
-0.460, -3.554e-9
-0.459, -3.532e-9
-0.458, -3.510e-9
-0.457, -3.492e-9
-0.456, -3.476e-9
-0.455, -3.458e-9
-0.454, -3.435e-9
-0.453, -3.410e-9
-0.452, -3.389e-9
-0.451, -3.376e-9
-0.450, -3.353e-9
-0.449, -3.329e-9
-0.448, -3.309e-9
-0.447, -3.290e-9
-0.446, -3.271e-9
-0.445, -3.250e-9
-0.444, -3.228e-9
-0.443, -3.207e-9
-0.442, -3.189e-9
-0.441, -3.166e-9
-0.440, -3.144e-9
-0.439, -3.124e-9
-0.438, -3.106e-9
-0.437, -3.089e-9
-0.436, -3.067e-9
-0.435, -3.045e-9
-0.434, -3.025e-9
-0.433, -3.010e-9
-0.432, -2.987e-9
-0.431, -2.968e-9
-0.430, -2.948e-9
-0.429, -2.931e-9
-0.428, -2.912e-9
-0.427, -2.891e-9
-0.426, -2.874e-9
-0.425, -2.857e-9
-0.424, -2.836e-9
-0.423, -2.813e-9
-0.422, -2.795e-9
-0.421, -2.779e-9
-0.420, -2.764e-9
-0.419, -2.745e-9
-0.418, -2.724e-9
-0.417, -2.706e-9
-0.416, -2.687e-9
-0.415, -2.667e-9
-0.414, -2.647e-9
-0.413, -2.631e-9
-0.412, -2.615e-9
-0.411, -2.593e-9
-0.410, -2.568e-9
-0.409, -2.547e-9
-0.408, -2.532e-9
-0.407, -2.515e-9
-0.406, -2.494e-9
-0.405, -2.471e-9
-0.404, -2.455e-9
-0.403, -2.443e-9
-0.402, -2.424e-9
-0.401, -2.403e-9
-0.400, -2.391e-9
-0.399, -2.379e-9
-0.398, -2.359e-9
-0.397, -2.334e-9
-0.396, -2.315e-9
-0.395, -2.304e-9
-0.394, -2.291e-9
-0.393, -2.273e-9
-0.392, -2.256e-9
-0.391, -2.244e-9
-0.390, -2.226e-9
-0.389, -2.209e-9
-0.388, -2.192e-9
-0.387, -2.177e-9
-0.386, -2.161e-9
-0.385, -2.141e-9
-0.384, -2.123e-9
-0.383, -2.105e-9
-0.382, -2.089e-9
-0.381, -2.071e-9
-0.380, -2.055e-9
-0.379, -2.040e-9
-0.378, -2.026e-9
-0.377, -2.010e-9
-0.376, -1.996e-9
-0.375, -1.978e-9
-0.374, -1.961e-9
-0.373, -1.947e-9
-0.372, -1.936e-9
-0.371, -1.922e-9
-0.370, -1.904e-9
-0.369, -1.892e-9
-0.368, -1.881e-9
-0.367, -1.865e-9
-0.366, -1.846e-9
-0.365, -1.829e-9
-0.364, -1.820e-9
-0.363, -1.809e-9
-0.362, -1.792e-9
-0.361, -1.779e-9
-0.360, -1.772e-9
-0.359, -1.763e-9
-0.358, -1.746e-9
-0.357, -1.725e-9
-0.356, -1.711e-9
-0.355, -1.702e-9
-0.354, -1.690e-9
-0.353, -1.674e-9
-0.352, -1.664e-9
-0.351, -1.657e-9
-0.350, -1.648e-9
-0.349, -1.634e-9
-0.348, -1.620e-9
-0.347, -1.614e-9
-0.346, -1.607e-9
-0.345, -1.591e-9
-0.344, -1.575e-9
-0.343, -1.564e-9
-0.342, -1.559e-9
-0.341, -1.548e-9
-0.340, -1.532e-9
-0.339, -1.521e-9
-0.338, -1.515e-9
-0.337, -1.504e-9
-0.336, -1.487e-9
-0.335, -1.472e-9
-0.334, -1.463e-9
-0.333, -1.456e-9
-0.332, -1.444e-9
-0.331, -1.431e-9
-0.330, -1.423e-9
-0.329, -1.415e-9
-0.328, -1.406e-9
-0.327, -1.392e-9
-0.326, -1.382e-9
-0.325, -1.374e-9
-0.324, -1.365e-9
-0.323, -1.353e-9
-0.322, -1.340e-9
-0.321, -1.333e-9
-0.320, -1.327e-9
-0.319, -1.317e-9
-0.318, -1.307e-9
-0.317, -1.299e-9
-0.316, -1.293e-9
-0.315, -1.285e-9
-0.314, -1.271e-9
-0.313, -1.259e-9
-0.312, -1.253e-9
-0.311, -1.244e-9
-0.310, -1.232e-9
-0.309, -1.218e-9
-0.308, -1.211e-9
-0.307, -1.202e-9
-0.306, -1.195e-9
-0.305, -1.184e-9
-0.304, -1.175e-9
-0.303, -1.169e-9
-0.302, -1.164e-9
-0.301, -1.153e-9
-0.300, -1.142e-9
-0.299, -1.135e-9
-0.298, -1.132e-9
-0.297, -1.122e-9
-0.296, -1.110e-9
-0.295, -1.101e-9
-0.294, -1.098e-9
-0.293, -1.092e-9
-0.292, -1.081e-9
-0.291, -1.070e-9
-0.290, -1.066e-9
-0.289, -1.063e-9
-0.288, -1.053e-9
-0.287, -1.040e-9
-0.286, -1.032e-9
-0.285, -1.030e-9
-0.284, -1.021e-9
-0.283, -1.007e-9
-0.282, -9.966e-10
-0.281, -9.952e-10
-0.280, -9.898e-10
-0.279, -9.755e-10
-0.278, -9.624e-10
-0.277, -9.587e-10
-0.276, -9.588e-10
-0.275, -9.499e-10
-0.274, -9.355e-10
-0.273, -9.294e-10
-0.272, -9.289e-10
-0.271, -9.212e-10
-0.270, -9.080e-10
-0.269, -9.006e-10
-0.268, -8.996e-10
-0.267, -8.932e-10
-0.266, -8.817e-10
-0.265, -8.734e-10
-0.264, -8.697e-10
-0.263, -8.666e-10
-0.262, -8.573e-10
-0.261, -8.467e-10
-0.260, -8.422e-10
-0.259, -8.390e-10
-0.258, -8.335e-10
-0.257, -8.249e-10
-0.256, -8.196e-10
-0.255, -8.160e-10
-0.254, -8.101e-10
-0.253, -8.024e-10
-0.252, -7.952e-10
-0.251, -7.905e-10
-0.250, -7.859e-10
-0.249, -7.776e-10
-0.248, -7.706e-10
-0.247, -7.652e-10
-0.246, -7.622e-10
-0.245, -7.541e-10
-0.244, -7.446e-10
-0.243, -7.383e-10
-0.242, -7.336e-10
-0.241, -7.266e-10
-0.240, -7.184e-10
-0.239, -7.128e-10
-0.238, -7.088e-10
-0.237, -7.036e-10
-0.236, -6.961e-10
-0.235, -6.905e-10
-0.234, -6.861e-10
-0.233, -6.808e-10
-0.232, -6.744e-10
-0.231, -6.692e-10
-0.230, -6.636e-10
-0.229, -6.583e-10
-0.228, -6.548e-10
-0.227, -6.486e-10
-0.226, -6.413e-10
-0.225, -6.369e-10
-0.224, -6.325e-10
-0.223, -6.278e-10
-0.222, -6.208e-10
-0.221, -6.143e-10
-0.220, -6.109e-10
-0.219, -6.073e-10
-0.218, -5.994e-10
-0.217, -5.922e-10
-0.216, -5.889e-10
-0.215, -5.873e-10
-0.214, -5.811e-10
-0.213, -5.729e-10
-0.212, -5.690e-10
-0.211, -5.687e-10
-0.210, -5.642e-10
-0.209, -5.551e-10
-0.208, -5.498e-10
-0.207, -5.479e-10
-0.206, -5.442e-10
-0.205, -5.354e-10
-0.204, -5.277e-10
-0.203, -5.270e-10
-0.202, -5.234e-10
-0.201, -5.167e-10
-0.200, -5.092e-10
-0.199, -5.037e-10
-0.198, -5.017e-10
-0.197, -4.969e-10
-0.196, -4.882e-10
-0.195, -4.837e-10
-0.194, -4.804e-10
-0.193, -4.752e-10
-0.192, -4.671e-10
-0.191, -4.602e-10
-0.190, -4.580e-10
-0.189, -4.551e-10
-0.188, -4.484e-10
-0.187, -4.424e-10
-0.186, -4.404e-10
-0.185, -4.386e-10
-0.184, -4.316e-10
-0.183, -4.238e-10
-0.182, -4.223e-10
-0.181, -4.221e-10
-0.180, -4.163e-10
-0.179, -4.098e-10
-0.178, -4.045e-10
-0.177, -4.034e-10
-0.176, -4.002e-10
-0.175, -3.925e-10
-0.174, -3.864e-10
-0.173, -3.836e-10
-0.172, -3.805e-10
-0.171, -3.738e-10
-0.170, -3.693e-10
-0.169, -3.659e-10
-0.168, -3.642e-10
-0.167, -3.584e-10
-0.166, -3.541e-10
-0.165, -3.511e-10
-0.164, -3.470e-10
-0.163, -3.455e-10
-0.162, -3.416e-10
-0.161, -3.345e-10
-0.160, -3.307e-10
-0.159, -3.289e-10
-0.158, -3.290e-10
-0.157, -3.255e-10
-0.156, -3.173e-10
-0.155, -3.140e-10
-0.154, -3.134e-10
-0.153, -3.089e-10
-0.152, -3.006e-10
-0.151, -3.009e-10
-0.150, -2.980e-10
-0.149, -2.931e-10
-0.148, -2.862e-10
-0.147, -2.809e-10
-0.146, -2.782e-10
-0.145, -2.734e-10
-0.144, -2.639e-10
-0.143, -2.590e-10
-0.142, -2.590e-10
-0.141, -2.585e-10
-0.140, -2.517e-10
-0.139, -2.481e-10
-0.138, -2.447e-10
-0.137, -2.447e-10
-0.136, -2.366e-10
-0.135, -2.263e-10
-0.134, -2.281e-10
-0.133, -2.288e-10
-0.132, -2.214e-10
-0.131, -2.128e-10
-0.130, -2.101e-10
-0.129, -2.098e-10
-0.128, -2.055e-10
-0.127, -1.979e-10
-0.126, -1.985e-10
-0.125, -1.966e-10
-0.124, -1.927e-10
-0.123, -1.856e-10
-0.122, -1.800e-10
-0.121, -1.827e-10
-0.120, -1.828e-10
-0.119, -1.745e-10
-0.118, -1.689e-10
-0.117, -1.670e-10
-0.116, -1.683e-10
-0.115, -1.631e-10
-0.114, -1.565e-10
-0.113, -1.561e-10
-0.112, -1.572e-10
-0.111, -1.531e-10
-0.110, -1.444e-10
-0.109, -1.423e-10
-0.108, -1.419e-10
-0.107, -1.370e-10
-0.106, -1.283e-10
-0.105, -1.276e-10
-0.104, -1.291e-10
-0.103, -1.255e-10
-0.102, -1.171e-10
-0.101, -1.162e-10
-0.100, -1.171e-10
-0.099, -1.149e-10
-0.098, -1.062e-10
-0.097, -1.042e-10
-0.096, -1.072e-10
-0.095, -1.059e-10
-0.094, -9.579e-11
-0.093, -8.847e-11
-0.092, -9.111e-11
-0.091, -9.033e-11
-0.090, -8.691e-11
-0.089, -7.580e-11
-0.088, -6.888e-11
-0.087, -7.073e-11
-0.086, -7.103e-11
-0.085, -6.508e-11
-0.084, -5.650e-11
-0.083, -5.864e-11
-0.082, -5.358e-11
-0.081, -4.334e-11
-0.080, -3.876e-11
-0.079, -4.217e-11
-0.078, -3.954e-11
-0.077, -3.262e-11
-0.076, -2.882e-11
-0.075, -3.252e-11
-0.074, -3.340e-11
-0.073, -2.131e-11
-0.072, -1.078e-11
-0.071, -1.117e-11
-0.070, -1.273e-11
-0.069, -4.933e-12
-0.068, 4.426e-12
-0.067, -1.716e-12
-0.066, -6.785e-12
-0.065, -3.860e-12
-0.064, 4.231e-12
-0.063, 1.359e-11
-0.062, 2.129e-11
-0.061, 2.811e-11
-0.060, 3.650e-11
-0.059, 4.030e-11
-0.058, 4.654e-11
-0.057, 5.931e-11
-0.056, 7.393e-11
-0.055, 8.173e-11
-0.054, 8.378e-11
-0.053, 8.933e-11
-0.052, 9.079e-11
-0.051, 9.294e-11
-0.050, 9.167e-11
-0.049, 9.528e-11
-0.048, 9.850e-11
-0.047, 1.021e-10
-0.046, 1.026e-10
-0.045, 1.014e-10
-0.044, 1.030e-10
-0.043, 1.080e-10
-0.042, 1.065e-10
-0.041, 1.007e-10
-0.040, 1.006e-10
-0.039, 9.274e-11
-0.038, 8.485e-11
-0.037, 8.280e-11
-0.036, 8.514e-11
-0.035, 9.148e-11
-0.034, 9.079e-11
-0.033, 9.450e-11
-0.032, 9.664e-11
-0.031, 9.499e-11
-0.030, 9.070e-11
-0.029, 9.694e-11
-0.028, 1.003e-10
-0.027, 9.967e-11
-0.026, 9.967e-11
-0.025, 1.026e-10
-0.024, 1.081e-10
-0.023, 1.077e-10
-0.022, 1.053e-10
-0.021, 1.022e-10
-0.020, 1.048e-10
-0.019, 1.057e-10
-0.018, 1.064e-10
-0.017, 1.076e-10
-0.016, 1.070e-10
-0.015, 1.110e-10
-0.014, 1.125e-10
-0.013, 1.132e-10
-0.012, 1.196e-10
-0.011, 1.220e-10
-0.010, 1.265e-10
-0.009, 1.335e-10
-0.008, 1.341e-10
-0.007, 1.387e-10
-0.006, 1.422e-10
-0.005, 1.439e-10
-0.004, 1.466e-10
-0.003, 1.538e-10
-0.002, 1.688e-10
-0.001, 1.730e-10
0.000, 1.808e-10
0.001, 2.042e-10
0.002, 2.135e-10
0.003, 2.151e-10
0.004, 2.227e-10
0.005, 2.268e-10
0.006, 2.266e-10
0.007, 2.361e-10
0.008, 2.443e-10
0.009, 2.419e-10
0.010, 2.444e-10
0.011, 2.474e-10
0.012, 2.530e-10
0.013, 2.490e-10
0.014, 2.485e-10
0.015, 2.482e-10
0.016, 2.440e-10
0.017, 2.539e-10
0.018, 2.591e-10
0.019, 2.695e-10
0.020, 2.692e-10
0.021, 2.690e-10
0.022, 2.643e-10
0.023, 2.778e-10
0.024, 2.817e-10
0.025, 2.868e-10
0.026, 2.974e-10
0.027, 3.242e-10
0.028, 3.593e-10
0.029, 3.823e-10
0.030, 3.909e-10
0.031, 3.935e-10
0.032, 3.915e-10
0.033, 3.933e-10
0.034, 4.078e-10
0.035, 4.309e-10
0.036, 4.350e-10
0.037, 4.490e-10
0.038, 4.593e-10
0.039, 4.393e-10
0.040, 4.479e-10
0.041, 4.877e-10
0.042, 4.959e-10
0.043, 4.991e-10
0.044, 4.969e-10
0.045, 4.963e-10
0.046, 5.047e-10
0.047, 5.191e-10
0.048, 5.241e-10
0.049, 5.203e-10
0.050, 5.239e-10
0.051, 5.253e-10
0.052, 5.257e-10
0.053, 5.329e-10
0.054, 5.376e-10
0.055, 5.583e-10
0.056, 5.796e-10
0.057, 5.985e-10
0.058, 6.025e-10
0.059, 6.126e-10
0.060, 6.201e-10
0.061, 6.219e-10
0.062, 6.232e-10
0.063, 6.275e-10
0.064, 6.422e-10
0.065, 6.543e-10
0.066, 6.565e-10
0.067, 6.645e-10
0.068, 6.709e-10
0.069, 6.724e-10
0.070, 6.776e-10
0.071, 6.811e-10
0.072, 6.809e-10
0.073, 6.914e-10
0.074, 7.033e-10
0.075, 7.142e-10
0.076, 7.202e-10
0.077, 7.276e-10
0.078, 7.263e-10
0.079, 7.218e-10
0.080, 7.376e-10
0.081, 7.720e-10
0.082, 7.740e-10
0.083, 7.729e-10
0.084, 7.887e-10
0.085, 8.047e-10
0.086, 8.109e-10
0.087, 8.138e-10
0.088, 8.152e-10
0.089, 8.236e-10
0.090, 8.130e-10
0.091, 8.130e-10
0.092, 8.199e-10
0.093, 8.198e-10
0.094, 8.204e-10
0.095, 8.179e-10
0.096, 8.241e-10
0.097, 8.345e-10
0.098, 8.419e-10
0.099, 8.486e-10
0.100, 8.529e-10
0.101, 8.601e-10
0.102, 8.777e-10
0.103, 8.821e-10
0.104, 8.903e-10
0.105, 8.958e-10
0.106, 9.055e-10
0.107, 9.101e-10
0.108, 9.169e-10
0.109, 9.188e-10
0.110, 9.213e-10
0.111, 9.201e-10
0.112, 9.184e-10
0.113, 9.240e-10
0.114, 9.314e-10
0.115, 9.272e-10
0.116, 9.258e-10
0.117, 9.248e-10
0.118, 9.277e-10
0.119, 9.357e-10
0.120, 9.357e-10
0.121, 9.392e-10
0.122, 9.590e-10
0.123, 9.670e-10
0.124, 9.672e-10
0.125, 9.641e-10
0.126, 9.673e-10
0.127, 9.709e-10
0.128, 9.700e-10
0.129, 9.728e-10
0.130, 9.722e-10
0.131, 9.731e-10
0.132, 9.762e-10
0.133, 9.788e-10
0.134, 9.763e-10
0.135, 9.811e-10
0.136, 9.845e-10
0.137, 9.863e-10
0.138, 9.875e-10
0.139, 9.877e-10
0.140, 9.914e-10
0.141, 9.962e-10
0.142, 9.975e-10
0.143, 1.002e-9
0.144, 1.011e-9
0.145, 1.016e-9
0.146, 1.013e-9
0.147, 1.015e-9
0.148, 1.020e-9
0.149, 1.026e-9
0.150, 1.033e-9
0.151, 1.032e-9
0.152, 1.035e-9
0.153, 1.041e-9
0.154, 1.043e-9
0.155, 1.045e-9
0.156, 1.050e-9
0.157, 1.060e-9
0.158, 1.064e-9
0.159, 1.057e-9
0.160, 1.059e-9
0.161, 1.071e-9
0.162, 1.090e-9
0.163, 1.101e-9
0.164, 1.104e-9
0.165, 1.111e-9
0.166, 1.109e-9
0.167, 1.106e-9
0.168, 1.108e-9
0.169, 1.114e-9
0.170, 1.115e-9
0.171, 1.119e-9
0.172, 1.119e-9
0.173, 1.124e-9
0.174, 1.133e-9
0.175, 1.140e-9
0.176, 1.137e-9
0.177, 1.139e-9
0.178, 1.154e-9
0.179, 1.163e-9
0.180, 1.162e-9
0.181, 1.170e-9
0.182, 1.175e-9
0.183, 1.179e-9
0.184, 1.182e-9
0.185, 1.188e-9
0.186, 1.197e-9
0.187, 1.201e-9
0.188, 1.202e-9
0.189, 1.201e-9
0.190, 1.209e-9
0.191, 1.212e-9
0.192, 1.209e-9
0.193, 1.207e-9
0.194, 1.209e-9
0.195, 1.210e-9
0.196, 1.208e-9
0.197, 1.209e-9
0.198, 1.210e-9
0.199, 1.221e-9
0.200, 1.218e-9
0.201, 1.220e-9
0.202, 1.232e-9
0.203, 1.234e-9
0.204, 1.233e-9
0.205, 1.229e-9
0.206, 1.233e-9
0.207, 1.239e-9
0.208, 1.243e-9
0.209, 1.246e-9
0.210, 1.247e-9
0.211, 1.249e-9
0.212, 1.250e-9
0.213, 1.252e-9
0.214, 1.254e-9
0.215, 1.259e-9
0.216, 1.265e-9
0.217, 1.268e-9
0.218, 1.265e-9
0.219, 1.268e-9
0.220, 1.278e-9
0.221, 1.278e-9
0.222, 1.273e-9
0.223, 1.279e-9
0.224, 1.286e-9
0.225, 1.292e-9
0.226, 1.289e-9
0.227, 1.291e-9
0.228, 1.297e-9
0.229, 1.298e-9
0.230, 1.298e-9
0.231, 1.305e-9
0.232, 1.306e-9
0.233, 1.306e-9
0.234, 1.307e-9
0.235, 1.310e-9
0.236, 1.320e-9
0.237, 1.325e-9
0.238, 1.324e-9
0.239, 1.328e-9
0.240, 1.333e-9
0.241, 1.334e-9
0.242, 1.335e-9
0.243, 1.343e-9
0.244, 1.350e-9
0.245, 1.352e-9
0.246, 1.350e-9
0.247, 1.348e-9
0.248, 1.357e-9
0.249, 1.363e-9
0.250, 1.362e-9
0.251, 1.363e-9
0.252, 1.370e-9
0.253, 1.379e-9
0.254, 1.378e-9
0.255, 1.384e-9
0.256, 1.393e-9
0.257, 1.404e-9
0.258, 1.406e-9
0.259, 1.408e-9
0.260, 1.412e-9
0.261, 1.422e-9
0.262, 1.420e-9
0.263, 1.418e-9
0.264, 1.423e-9
0.265, 1.437e-9
0.266, 1.430e-9
0.267, 1.428e-9
0.268, 1.434e-9
0.269, 1.446e-9
0.270, 1.456e-9
0.271, 1.451e-9
0.272, 1.453e-9
0.273, 1.463e-9
0.274, 1.469e-9
0.275, 1.462e-9
0.276, 1.464e-9
0.277, 1.475e-9
0.278, 1.486e-9
0.279, 1.481e-9
0.280, 1.480e-9
0.281, 1.487e-9
0.282, 1.491e-9
0.283, 1.489e-9
0.284, 1.489e-9
0.285, 1.493e-9
0.286, 1.508e-9
0.287, 1.511e-9
0.288, 1.509e-9
0.289, 1.518e-9
0.290, 1.530e-9
0.291, 1.535e-9
0.292, 1.534e-9
0.293, 1.539e-9
0.294, 1.554e-9
0.295, 1.565e-9
0.296, 1.563e-9
0.297, 1.571e-9
0.298, 1.580e-9
0.299, 1.590e-9
0.300, 1.588e-9
0.301, 1.593e-9
0.302, 1.600e-9
0.303, 1.610e-9
0.304, 1.611e-9
0.305, 1.604e-9
0.306, 1.614e-9
0.307, 1.630e-9
0.308, 1.635e-9
0.309, 1.638e-9
0.310, 1.640e-9
0.311, 1.650e-9
0.312, 1.653e-9
0.313, 1.656e-9
0.314, 1.659e-9
0.315, 1.674e-9
0.316, 1.682e-9
0.317, 1.683e-9
0.318, 1.694e-9
0.319, 1.704e-9
0.320, 1.709e-9
0.321, 1.720e-9
0.322, 1.727e-9
0.323, 1.741e-9
0.324, 1.760e-9
0.325, 1.760e-9
0.326, 1.756e-9
0.327, 1.765e-9
0.328, 1.777e-9
0.329, 1.777e-9
0.330, 1.775e-9
0.331, 1.778e-9
0.332, 1.790e-9
0.333, 1.793e-9
0.334, 1.791e-9
0.335, 1.799e-9
0.336, 1.809e-9
0.337, 1.815e-9
0.338, 1.817e-9
0.339, 1.821e-9
0.340, 1.835e-9
0.341, 1.839e-9
0.342, 1.844e-9
0.343, 1.847e-9
0.344, 1.860e-9
0.345, 1.868e-9
0.346, 1.867e-9
0.347, 1.869e-9
0.348, 1.880e-9
0.349, 1.889e-9
0.350, 1.889e-9
0.351, 1.894e-9
0.352, 1.904e-9
0.353, 1.912e-9
0.354, 1.914e-9
0.355, 1.918e-9
0.356, 1.932e-9
0.357, 1.940e-9
0.358, 1.943e-9
0.359, 1.941e-9
0.360, 1.946e-9
0.361, 1.958e-9
0.362, 1.960e-9
0.363, 1.961e-9
0.364, 1.965e-9
0.365, 1.976e-9
0.366, 1.990e-9
0.367, 1.997e-9
0.368, 2.001e-9
0.369, 2.012e-9
0.370, 2.019e-9
0.371, 2.022e-9
0.372, 2.027e-9
0.373, 2.035e-9
0.374, 2.037e-9
0.375, 2.038e-9
0.376, 2.042e-9
0.377, 2.046e-9
0.378, 2.049e-9
0.379, 2.060e-9
0.380, 2.066e-9
0.381, 2.067e-9
0.382, 2.076e-9
0.383, 2.080e-9
0.384, 2.088e-9
0.385, 2.090e-9
0.386, 2.094e-9
0.387, 2.105e-9
0.388, 2.112e-9
0.389, 2.114e-9
0.390, 2.119e-9
0.391, 2.130e-9
0.392, 2.133e-9
0.393, 2.137e-9
0.394, 2.141e-9
0.395, 2.149e-9
0.396, 2.157e-9
0.397, 2.159e-9
0.398, 2.160e-9
0.399, 2.170e-9
0.400, 2.175e-9
0.401, 2.178e-9
0.402, 2.188e-9
0.403, 2.193e-9
0.404, 2.201e-9
0.405, 2.204e-9
0.406, 2.207e-9
0.407, 2.211e-9
0.408, 2.215e-9
0.409, 2.221e-9
0.410, 2.219e-9
0.411, 2.224e-9
0.412, 2.235e-9
0.413, 2.242e-9
0.414, 2.256e-9
0.415, 2.262e-9
0.416, 2.268e-9
0.417, 2.272e-9
0.418, 2.277e-9
0.419, 2.282e-9
0.420, 2.285e-9
0.421, 2.287e-9
0.422, 2.291e-9
0.423, 2.297e-9
0.424, 2.306e-9
0.425, 2.317e-9
0.426, 2.316e-9
0.427, 2.316e-9
0.428, 2.315e-9
0.429, 2.324e-9
0.430, 2.334e-9
0.431, 2.344e-9
0.432, 2.342e-9
0.433, 2.345e-9
0.434, 2.353e-9
0.435, 2.363e-9
0.436, 2.364e-9
0.437, 2.371e-9
0.438, 2.381e-9
0.439, 2.386e-9
0.440, 2.385e-9
0.441, 2.392e-9
0.442, 2.403e-9
0.443, 2.403e-9
0.444, 2.400e-9
0.445, 2.408e-9
0.446, 2.421e-9
0.447, 2.424e-9
0.448, 2.424e-9
0.449, 2.433e-9
0.450, 2.443e-9
0.451, 2.446e-9
0.452, 2.449e-9
0.453, 2.450e-9
0.454, 2.453e-9
0.455, 2.459e-9
0.456, 2.464e-9
0.457, 2.475e-9
0.458, 2.483e-9
0.459, 2.489e-9
0.460, 2.491e-9
0.461, 2.492e-9
0.462, 2.504e-9
0.463, 2.511e-9
0.464, 2.511e-9
0.465, 2.516e-9
0.466, 2.529e-9
0.467, 2.542e-9
0.468, 2.549e-9
0.469, 2.554e-9
0.470, 2.557e-9
0.471, 2.566e-9
0.472, 2.568e-9
0.473, 2.569e-9
0.474, 2.578e-9
0.475, 2.586e-9
0.476, 2.585e-9
0.477, 2.588e-9
0.478, 2.596e-9
0.479, 2.607e-9
0.480, 2.610e-9
0.481, 2.608e-9
0.482, 2.611e-9
0.483, 2.622e-9
0.484, 2.627e-9
0.485, 2.625e-9
0.486, 2.633e-9
0.487, 2.651e-9
0.488, 2.656e-9
0.489, 2.649e-9
0.490, 2.647e-9
0.491, 2.663e-9
0.492, 2.679e-9
0.493, 2.680e-9
0.494, 2.679e-9
0.495, 2.694e-9
0.496, 2.702e-9
0.497, 2.705e-9
0.498, 2.712e-9
0.499, 2.714e-9
0.500, 2.701e-9
0.499, 2.624e-9
0.498, 2.564e-9
0.497, 2.518e-9
0.496, 2.485e-9
0.495, 2.460e-9
0.494, 2.431e-9
0.493, 2.398e-9
0.492, 2.376e-9
0.491, 2.355e-9
0.490, 2.331e-9
0.489, 2.305e-9
0.488, 2.282e-9
0.487, 2.265e-9
0.486, 2.245e-9
0.485, 2.226e-9
0.484, 2.207e-9
0.483, 2.188e-9
0.482, 2.170e-9
0.481, 2.148e-9
0.480, 2.130e-9
0.479, 2.115e-9
0.478, 2.102e-9
0.477, 2.091e-9
0.476, 2.080e-9
0.475, 2.068e-9
0.474, 2.051e-9
0.473, 2.037e-9
0.472, 2.024e-9
0.471, 2.006e-9
0.470, 1.994e-9
0.469, 1.989e-9
0.468, 1.982e-9
0.467, 1.969e-9
0.466, 1.951e-9
0.465, 1.939e-9
0.464, 1.927e-9
0.463, 1.918e-9
0.462, 1.906e-9
0.461, 1.892e-9
0.460, 1.882e-9
0.459, 1.871e-9
0.458, 1.862e-9
0.457, 1.852e-9
0.456, 1.842e-9
0.455, 1.830e-9
0.454, 1.823e-9
0.453, 1.810e-9
0.452, 1.801e-9
0.451, 1.794e-9
0.450, 1.786e-9
0.449, 1.771e-9
0.448, 1.761e-9
0.447, 1.757e-9
0.446, 1.748e-9
0.445, 1.742e-9
0.444, 1.730e-9
0.443, 1.722e-9
0.442, 1.717e-9
0.441, 1.708e-9
0.440, 1.698e-9
0.439, 1.687e-9
0.438, 1.677e-9
0.437, 1.670e-9
0.436, 1.659e-9
0.435, 1.647e-9
0.434, 1.636e-9
0.433, 1.630e-9
0.432, 1.622e-9
0.431, 1.616e-9
0.430, 1.609e-9
0.429, 1.602e-9
0.428, 1.594e-9
0.427, 1.587e-9
0.426, 1.577e-9
0.425, 1.571e-9
0.424, 1.564e-9
0.423, 1.558e-9
0.422, 1.547e-9
0.421, 1.533e-9
0.420, 1.529e-9
0.419, 1.528e-9
0.418, 1.519e-9
0.417, 1.508e-9
0.416, 1.501e-9
0.415, 1.498e-9
0.414, 1.488e-9
0.413, 1.479e-9
0.412, 1.473e-9
0.411, 1.466e-9
0.410, 1.456e-9
0.409, 1.445e-9
0.408, 1.437e-9
0.407, 1.433e-9
0.406, 1.425e-9
0.405, 1.413e-9
0.404, 1.401e-9
0.403, 1.396e-9
0.402, 1.390e-9
0.401, 1.381e-9
0.400, 1.372e-9
0.399, 1.366e-9
0.398, 1.363e-9
0.397, 1.355e-9
0.396, 1.344e-9
0.395, 1.337e-9
0.394, 1.335e-9
0.393, 1.325e-9
0.392, 1.310e-9
0.391, 1.302e-9
0.390, 1.300e-9
0.389, 1.291e-9
0.388, 1.280e-9
0.387, 1.274e-9
0.386, 1.269e-9
0.385, 1.265e-9
0.384, 1.256e-9
0.383, 1.247e-9
0.382, 1.240e-9
0.381, 1.234e-9
0.380, 1.223e-9
0.379, 1.213e-9
0.378, 1.206e-9
0.377, 1.202e-9
0.376, 1.196e-9
0.375, 1.185e-9
0.374, 1.176e-9
0.373, 1.171e-9
0.372, 1.166e-9
0.371, 1.157e-9
0.370, 1.148e-9
0.369, 1.144e-9
0.368, 1.140e-9
0.367, 1.133e-9
0.366, 1.124e-9
0.365, 1.116e-9
0.364, 1.112e-9
0.363, 1.104e-9
0.362, 1.095e-9
0.361, 1.087e-9
0.360, 1.083e-9
0.359, 1.076e-9
0.358, 1.069e-9
0.357, 1.061e-9
0.356, 1.053e-9
0.355, 1.048e-9
0.354, 1.041e-9
0.353, 1.036e-9
0.352, 1.029e-9
0.351, 1.020e-9
0.350, 1.014e-9
0.349, 1.009e-9
0.348, 1.004e-9
0.347, 9.934e-10
0.346, 9.866e-10
0.345, 9.823e-10
0.344, 9.774e-10
0.343, 9.705e-10
0.342, 9.599e-10
0.341, 9.529e-10
0.340, 9.487e-10
0.339, 9.432e-10
0.338, 9.322e-10
0.337, 9.235e-10
0.336, 9.202e-10
0.335, 9.167e-10
0.334, 9.071e-10
0.333, 8.952e-10
0.332, 8.932e-10
0.331, 8.912e-10
0.330, 8.828e-10
0.329, 8.713e-10
0.328, 8.677e-10
0.327, 8.653e-10
0.326, 8.585e-10
0.325, 8.454e-10
0.324, 8.379e-10
0.323, 8.380e-10
0.322, 8.326e-10
0.321, 8.215e-10
0.320, 8.155e-10
0.319, 8.155e-10
0.318, 8.097e-10
0.317, 7.987e-10
0.316, 7.894e-10
0.315, 7.877e-10
0.314, 7.849e-10
0.313, 7.766e-10
0.312, 7.650e-10
0.311, 7.637e-10
0.310, 7.622e-10
0.309, 7.544e-10
0.308, 7.438e-10
0.307, 7.392e-10
0.306, 7.393e-10
0.305, 7.319e-10
0.304, 7.208e-10
0.303, 7.157e-10
0.302, 7.172e-10
0.301, 7.095e-10
0.300, 6.982e-10
0.299, 6.922e-10
0.298, 6.910e-10
0.297, 6.837e-10
0.296, 6.720e-10
0.295, 6.668e-10
0.294, 6.654e-10
0.293, 6.603e-10
0.292, 6.522e-10
0.291, 6.452e-10
0.290, 6.439e-10
0.289, 6.402e-10
0.288, 6.319e-10
0.287, 6.257e-10
0.286, 6.239e-10
0.285, 6.198e-10
0.284, 6.101e-10
0.283, 6.029e-10
0.282, 6.013e-10
0.281, 5.978e-10
0.280, 5.902e-10
0.279, 5.831e-10
0.278, 5.796e-10
0.277, 5.773e-10
0.276, 5.706e-10
0.275, 5.612e-10
0.274, 5.563e-10
0.273, 5.540e-10
0.272, 5.485e-10
0.271, 5.401e-10
0.270, 5.365e-10
0.269, 5.348e-10
0.268, 5.285e-10
0.267, 5.209e-10
0.266, 5.161e-10
0.265, 5.151e-10
0.264, 5.101e-10
0.263, 5.011e-10
0.262, 4.950e-10
0.261, 4.939e-10
0.260, 4.885e-10
0.259, 4.796e-10
0.258, 4.717e-10
0.257, 4.704e-10
0.256, 4.664e-10
0.255, 4.574e-10
0.254, 4.480e-10
0.253, 4.457e-10
0.252, 4.428e-10
0.251, 4.344e-10
0.250, 4.267e-10
0.249, 4.247e-10
0.248, 4.229e-10
0.247, 4.155e-10
0.246, 4.083e-10
0.245, 4.058e-10
0.244, 4.040e-10
0.243, 3.985e-10
0.242, 3.905e-10
0.241, 3.871e-10
0.240, 3.865e-10
0.239, 3.825e-10
0.238, 3.751e-10
0.237, 3.715e-10
0.236, 3.697e-10
0.235, 3.652e-10
0.234, 3.589e-10
0.233, 3.549e-10
0.232, 3.521e-10
0.231, 3.480e-10
0.230, 3.416e-10
0.229, 3.366e-10
0.228, 3.346e-10
0.227, 3.297e-10
0.226, 3.230e-10
0.225, 3.179e-10
0.224, 3.149e-10
0.223, 3.101e-10
0.222, 3.044e-10
0.221, 3.000e-10
0.220, 2.968e-10
0.219, 2.943e-10
0.218, 2.883e-10
0.217, 2.846e-10
0.216, 2.825e-10
0.215, 2.775e-10
0.214, 2.716e-10
0.213, 2.674e-10
0.212, 2.642e-10
0.211, 2.600e-10
0.210, 2.538e-10
0.209, 2.500e-10
0.208, 2.473e-10
0.207, 2.434e-10
0.206, 2.373e-10
0.205, 2.326e-10
0.204, 2.280e-10
0.203, 2.237e-10
0.202, 2.177e-10
0.201, 2.112e-10
0.200, 2.079e-10
0.199, 2.060e-10
0.198, 2.006e-10
0.197, 1.932e-10
0.196, 1.904e-10
0.195, 1.908e-10
0.194, 1.855e-10
0.193, 1.779e-10
0.192, 1.755e-10
0.191, 1.751e-10
0.190, 1.711e-10
0.189, 1.635e-10
0.188, 1.600e-10
0.187, 1.609e-10
0.186, 1.579e-10
0.185, 1.507e-10
0.184, 1.462e-10
0.183, 1.456e-10
0.182, 1.443e-10
0.181, 1.373e-10
0.180, 1.301e-10
0.179, 1.284e-10
0.178, 1.277e-10
0.177, 1.216e-10
0.176, 1.141e-10
0.175, 1.110e-10
0.174, 1.108e-10
0.173, 1.080e-10
0.172, 1.001e-10
0.171, 9.664e-11
0.170, 9.596e-11
0.169, 9.265e-11
0.168, 8.582e-11
0.167, 8.085e-11
0.166, 7.841e-11
0.165, 7.588e-11
0.164, 7.042e-11
0.163, 6.535e-11
0.162, 6.350e-11
0.161, 6.106e-11
0.160, 5.629e-11
0.159, 5.307e-11
0.158, 5.063e-11
0.157, 4.712e-11
0.156, 4.274e-11
0.155, 3.913e-11
0.154, 3.426e-11
0.153, 3.133e-11
0.152, 2.665e-11
0.151, 2.324e-11
0.150, 2.129e-11
0.149, 1.622e-11
0.148, 1.164e-11
0.147, 6.668e-12
0.146, 5.498e-12
0.145, 2.671e-12
0.144, -3.373e-12
0.143, -7.467e-12
0.142, -9.612e-12
0.141, -1.137e-11
0.140, -1.702e-11
0.139, -2.258e-11
0.138, -2.570e-11
0.137, -2.726e-11
0.136, -3.427e-11
0.135, -4.149e-11
0.134, -4.626e-11
0.133, -4.860e-11
0.132, -5.055e-11
0.131, -5.601e-11
0.130, -6.098e-11
0.129, -6.274e-11
0.128, -6.342e-11
0.127, -6.693e-11
0.126, -7.405e-11
0.125, -7.814e-11
0.124, -7.931e-11
0.123, -8.077e-11
0.122, -8.604e-11
0.121, -9.306e-11
0.120, -9.462e-11
0.119, -9.423e-11
0.118, -9.988e-11
0.117, -1.064e-10
0.116, -1.095e-10
0.115, -1.095e-10
0.114, -1.115e-10
0.113, -1.169e-10
0.112, -1.229e-10
0.111, -1.242e-10
0.110, -1.248e-10
0.109, -1.307e-10
0.108, -1.367e-10
0.107, -1.387e-10
0.106, -1.397e-10
0.105, -1.446e-10
0.104, -1.513e-10
0.103, -1.551e-10
0.102, -1.569e-10
0.101, -1.577e-10
0.100, -1.634e-10
0.099, -1.690e-10
0.098, -1.709e-10
0.097, -1.740e-10
0.096, -1.782e-10
0.095, -1.834e-10
0.094, -1.846e-10
0.093, -1.871e-10
0.092, -1.908e-10
0.091, -1.958e-10
0.090, -1.988e-10
0.089, -2.010e-10
0.088, -2.034e-10
0.087, -2.094e-10
0.086, -2.133e-10
0.085, -2.153e-10
0.084, -2.183e-10
0.083, -2.242e-10
0.082, -2.311e-10
0.081, -2.323e-10
0.080, -2.320e-10
0.079, -2.386e-10
0.078, -2.450e-10
0.077, -2.477e-10
0.076, -2.486e-10
0.075, -2.544e-10
0.074, -2.614e-10
0.073, -2.653e-10
0.072, -2.651e-10
0.071, -2.698e-10
0.070, -2.767e-10
0.069, -2.826e-10
0.068, -2.827e-10
0.067, -2.868e-10
0.066, -2.926e-10
0.065, -2.977e-10
0.064, -2.998e-10
0.063, -3.022e-10
0.062, -3.083e-10
0.061, -3.128e-10
0.060, -3.160e-10
0.059, -3.173e-10
0.058, -3.199e-10
0.057, -3.265e-10
0.056, -3.306e-10
0.055, -3.317e-10
0.054, -3.358e-10
0.053, -3.406e-10
0.052, -3.453e-10
0.051, -3.472e-10
0.050, -3.489e-10
0.049, -3.529e-10
0.048, -3.576e-10
0.047, -3.611e-10
0.046, -3.643e-10
0.045, -3.678e-10
0.044, -3.728e-10
0.043, -3.770e-10
0.042, -3.802e-10
0.041, -3.841e-10
0.040, -3.883e-10
0.039, -3.927e-10
0.038, -3.978e-10
0.037, -4.008e-10
0.036, -4.019e-10
0.035, -4.056e-10
0.034, -4.126e-10
0.033, -4.171e-10
0.032, -4.188e-10
0.031, -4.233e-10
0.030, -4.305e-10
0.029, -4.350e-10
0.028, -4.383e-10
0.027, -4.392e-10
0.026, -4.453e-10
0.025, -4.522e-10
0.024, -4.550e-10
0.023, -4.560e-10
0.022, -4.606e-10
0.021, -4.680e-10
0.020, -4.729e-10
0.019, -4.757e-10
0.018, -4.780e-10
0.017, -4.854e-10
0.016, -4.943e-10
0.015, -4.967e-10
0.014, -4.986e-10
0.013, -5.056e-10
0.012, -5.137e-10
0.011, -5.164e-10
0.010, -5.179e-10
0.009, -5.238e-10
0.008, -5.331e-10
0.007, -5.375e-10
0.006, -5.392e-10
0.005, -5.425e-10
0.004, -5.508e-10
0.003, -5.559e-10
0.002, -5.589e-10
0.001, -5.632e-10
-0.000, -5.688e-10
-0.001, -5.746e-10
-0.002, -5.789e-10
-0.003, -5.821e-10
-0.004, -5.875e-10
-0.005, -5.932e-10
-0.006, -5.973e-10
-0.007, -6.022e-10
-0.008, -6.067e-10
-0.009, -6.116e-10
-0.010, -6.159e-10
-0.011, -6.207e-10
-0.012, -6.263e-10
-0.013, -6.300e-10
-0.014, -6.354e-10
-0.015, -6.413e-10
-0.016, -6.466e-10
-0.017, -6.511e-10
-0.018, -6.552e-10
-0.019, -6.610e-10
-0.020, -6.678e-10
-0.021, -6.719e-10
-0.022, -6.767e-10
-0.023, -6.817e-10
-0.024, -6.904e-10
-0.025, -6.953e-10
-0.026, -6.972e-10
-0.027, -7.030e-10
-0.028, -7.117e-10
-0.029, -7.165e-10
-0.030, -7.183e-10
-0.031, -7.229e-10
-0.032, -7.325e-10
-0.033, -7.405e-10
-0.034, -7.434e-10
-0.035, -7.476e-10
-0.036, -7.566e-10
-0.037, -7.667e-10
-0.038, -7.688e-10
-0.039, -7.717e-10
-0.040, -7.811e-10
-0.041, -7.907e-10
-0.042, -7.950e-10
-0.043, -7.963e-10
-0.044, -8.021e-10
-0.045, -8.123e-10
-0.046, -8.170e-10
-0.047, -8.198e-10
-0.048, -8.239e-10
-0.049, -8.335e-10
-0.050, -8.403e-10
-0.051, -8.421e-10
-0.052, -8.460e-10
-0.053, -8.558e-10
-0.054, -8.640e-10
-0.055, -8.663e-10
-0.056, -8.701e-10
-0.057, -8.793e-10
-0.058, -8.894e-10
-0.059, -8.942e-10
-0.060, -8.974e-10
-0.061, -9.042e-10
-0.062, -9.148e-10
-0.063, -9.208e-10
-0.064, -9.236e-10
-0.065, -9.327e-10
-0.066, -9.416e-10
-0.067, -9.493e-10
-0.068, -9.538e-10
-0.069, -9.589e-10
-0.070, -9.684e-10
-0.071, -9.759e-10
-0.072, -9.811e-10
-0.073, -9.875e-10
-0.074, -9.974e-10
-0.075, -1.009e-9
-0.076, -1.015e-9
-0.077, -1.020e-9
-0.078, -1.031e-9
-0.079, -1.039e-9
-0.080, -1.044e-9
-0.081, -1.050e-9
-0.082, -1.059e-9
-0.083, -1.067e-9
-0.084, -1.072e-9
-0.085, -1.078e-9
-0.086, -1.087e-9
-0.087, -1.096e-9
-0.088, -1.102e-9
-0.089, -1.108e-9
-0.090, -1.116e-9
-0.091, -1.126e-9
-0.092, -1.132e-9
-0.093, -1.138e-9
-0.094, -1.147e-9
-0.095, -1.157e-9
-0.096, -1.163e-9
-0.097, -1.169e-9
-0.098, -1.177e-9
-0.099, -1.190e-9
-0.100, -1.196e-9
-0.101, -1.200e-9
-0.102, -1.210e-9
-0.103, -1.224e-9
-0.104, -1.232e-9
-0.105, -1.238e-9
-0.106, -1.246e-9
-0.107, -1.261e-9
-0.108, -1.271e-9
-0.109, -1.275e-9
-0.110, -1.283e-9
-0.111, -1.295e-9
-0.112, -1.304e-9
-0.113, -1.308e-9
-0.114, -1.313e-9
-0.115, -1.326e-9
-0.116, -1.336e-9
-0.117, -1.340e-9
-0.118, -1.347e-9
-0.119, -1.359e-9
-0.120, -1.370e-9
-0.121, -1.375e-9
-0.122, -1.382e-9
-0.123, -1.395e-9
-0.124, -1.406e-9
-0.125, -1.413e-9
-0.126, -1.418e-9
-0.127, -1.428e-9
-0.128, -1.442e-9
-0.129, -1.450e-9
-0.130, -1.455e-9
-0.131, -1.466e-9
-0.132, -1.481e-9
-0.133, -1.489e-9
-0.134, -1.493e-9
-0.135, -1.502e-9
-0.136, -1.518e-9
-0.137, -1.529e-9
-0.138, -1.532e-9
-0.139, -1.540e-9
-0.140, -1.555e-9
-0.141, -1.566e-9
-0.142, -1.572e-9
-0.143, -1.578e-9
-0.144, -1.592e-9
-0.145, -1.604e-9
-0.146, -1.608e-9
-0.147, -1.613e-9
-0.148, -1.626e-9
-0.149, -1.640e-9
-0.150, -1.648e-9
-0.151, -1.651e-9
-0.152, -1.663e-9
-0.153, -1.676e-9
-0.154, -1.684e-9
-0.155, -1.688e-9
-0.156, -1.703e-9
-0.157, -1.716e-9
-0.158, -1.725e-9
-0.159, -1.732e-9
-0.160, -1.744e-9
-0.161, -1.759e-9
-0.162, -1.768e-9
-0.163, -1.771e-9
-0.164, -1.783e-9
-0.165, -1.794e-9
-0.166, -1.803e-9
-0.167, -1.809e-9
-0.168, -1.817e-9
-0.169, -1.830e-9
-0.170, -1.842e-9
-0.171, -1.850e-9
-0.172, -1.861e-9
-0.173, -1.876e-9
-0.174, -1.886e-9
-0.175, -1.893e-9
-0.176, -1.900e-9
-0.177, -1.913e-9
-0.178, -1.925e-9
-0.179, -1.933e-9
-0.180, -1.940e-9
-0.181, -1.952e-9
-0.182, -1.965e-9
-0.183, -1.973e-9
-0.184, -1.980e-9
-0.185, -1.995e-9
-0.186, -2.008e-9
-0.187, -2.018e-9
-0.188, -2.021e-9
-0.189, -2.033e-9
-0.190, -2.048e-9
-0.191, -2.058e-9
-0.192, -2.060e-9
-0.193, -2.072e-9
-0.194, -2.088e-9
-0.195, -2.100e-9
-0.196, -2.104e-9
-0.197, -2.114e-9
-0.198, -2.134e-9
-0.199, -2.146e-9
-0.200, -2.149e-9
-0.201, -2.156e-9
-0.202, -2.170e-9
-0.203, -2.184e-9
-0.204, -2.192e-9
-0.205, -2.198e-9
-0.206, -2.213e-9
-0.207, -2.228e-9
-0.208, -2.237e-9
-0.209, -2.242e-9
-0.210, -2.255e-9
-0.211, -2.270e-9
-0.212, -2.281e-9
-0.213, -2.286e-9
-0.214, -2.296e-9
-0.215, -2.309e-9
-0.216, -2.324e-9
-0.217, -2.331e-9
-0.218, -2.340e-9
-0.219, -2.356e-9
-0.220, -2.368e-9
-0.221, -2.376e-9
-0.222, -2.383e-9
-0.223, -2.395e-9
-0.224, -2.407e-9
-0.225, -2.413e-9
-0.226, -2.417e-9
-0.227, -2.429e-9
-0.228, -2.441e-9
-0.229, -2.453e-9
-0.230, -2.463e-9
-0.231, -2.477e-9
-0.232, -2.492e-9
-0.233, -2.503e-9
-0.234, -2.512e-9
-0.235, -2.521e-9
-0.236, -2.531e-9
-0.237, -2.543e-9
-0.238, -2.554e-9
-0.239, -2.566e-9
-0.240, -2.577e-9
-0.241, -2.588e-9
-0.242, -2.600e-9
-0.243, -2.610e-9
-0.244, -2.620e-9
-0.245, -2.629e-9
-0.246, -2.642e-9
-0.247, -2.656e-9
-0.248, -2.666e-9
-0.249, -2.675e-9
-0.250, -2.685e-9
-0.251, -2.699e-9
-0.252, -2.712e-9
-0.253, -2.722e-9
-0.254, -2.729e-9
-0.255, -2.745e-9
-0.256, -2.758e-9
-0.257, -2.766e-9
-0.258, -2.773e-9
-0.259, -2.789e-9
-0.260, -2.806e-9
-0.261, -2.812e-9
-0.262, -2.818e-9
-0.263, -2.834e-9
-0.264, -2.852e-9
-0.265, -2.861e-9
-0.266, -2.867e-9
-0.267, -2.876e-9
-0.268, -2.897e-9
-0.269, -2.910e-9
-0.270, -2.918e-9
-0.271, -2.924e-9
-0.272, -2.938e-9
-0.273, -2.954e-9
-0.274, -2.963e-9
-0.275, -2.970e-9
-0.276, -2.989e-9
-0.277, -3.008e-9
-0.278, -3.014e-9
-0.279, -3.024e-9
-0.280, -3.039e-9
-0.281, -3.053e-9
-0.282, -3.064e-9
-0.283, -3.069e-9
-0.284, -3.080e-9
-0.285, -3.097e-9
-0.286, -3.109e-9
-0.287, -3.116e-9
-0.288, -3.127e-9
-0.289, -3.142e-9
-0.290, -3.160e-9
-0.291, -3.166e-9
-0.292, -3.177e-9
-0.293, -3.195e-9
-0.294, -3.213e-9
-0.295, -3.223e-9
-0.296, -3.228e-9
-0.297, -3.241e-9
-0.298, -3.254e-9
-0.299, -3.261e-9
-0.300, -3.270e-9
-0.301, -3.285e-9
-0.302, -3.302e-9
-0.303, -3.316e-9
-0.304, -3.324e-9
-0.305, -3.335e-9
-0.306, -3.348e-9
-0.307, -3.362e-9
-0.308, -3.373e-9
-0.309, -3.382e-9
-0.310, -3.397e-9
-0.311, -3.414e-9
-0.312, -3.428e-9
-0.313, -3.435e-9
-0.314, -3.451e-9
-0.315, -3.466e-9
-0.316, -3.478e-9
-0.317, -3.488e-9
-0.318, -3.497e-9
-0.319, -3.508e-9
-0.320, -3.522e-9
-0.321, -3.533e-9
-0.322, -3.542e-9
-0.323, -3.555e-9
-0.324, -3.572e-9
-0.325, -3.588e-9
-0.326, -3.599e-9
-0.327, -3.612e-9
-0.328, -3.620e-9
-0.329, -3.636e-9
-0.330, -3.650e-9
-0.331, -3.665e-9
-0.332, -3.679e-9
-0.333, -3.690e-9
-0.334, -3.704e-9
-0.335, -3.716e-9
-0.336, -3.729e-9
-0.337, -3.740e-9
-0.338, -3.756e-9
-0.339, -3.767e-9
-0.340, -3.779e-9
-0.341, -3.789e-9
-0.342, -3.800e-9
-0.343, -3.816e-9
-0.344, -3.827e-9
-0.345, -3.842e-9
-0.346, -3.854e-9
-0.347, -3.866e-9
-0.348, -3.876e-9
-0.349, -3.889e-9
-0.350, -3.903e-9
-0.351, -3.920e-9
-0.352, -3.933e-9
-0.353, -3.947e-9
-0.354, -3.965e-9
-0.355, -3.975e-9
-0.356, -3.987e-9
-0.357, -4.003e-9
-0.358, -4.016e-9
-0.359, -4.033e-9
-0.360, -4.044e-9
-0.361, -4.054e-9
-0.362, -4.067e-9
-0.363, -4.082e-9
-0.364, -4.088e-9
-0.365, -4.102e-9
-0.366, -4.121e-9
-0.367, -4.144e-9
-0.368, -4.157e-9
-0.369, -4.172e-9
-0.370, -4.190e-9
-0.371, -4.203e-9
-0.372, -4.216e-9
-0.373, -4.228e-9
-0.374, -4.242e-9
-0.375, -4.261e-9
-0.376, -4.271e-9
-0.377, -4.276e-9
-0.378, -4.292e-9
-0.379, -4.313e-9
-0.380, -4.335e-9
-0.381, -4.349e-9
-0.382, -4.363e-9
-0.383, -4.378e-9
-0.384, -4.390e-9
-0.385, -4.406e-9
-0.386, -4.421e-9
-0.387, -4.442e-9
-0.388, -4.455e-9
-0.389, -4.475e-9
-0.390, -4.481e-9
-0.391, -4.497e-9
-0.392, -4.517e-9
-0.393, -4.534e-9
-0.394, -4.546e-9
-0.395, -4.559e-9
-0.396, -4.577e-9
-0.397, -4.584e-9
-0.398, -4.606e-9
-0.399, -4.623e-9
-0.400, -4.642e-9
-0.401, -4.654e-9
-0.402, -4.671e-9
-0.403, -4.689e-9
-0.404, -4.700e-9
-0.405, -4.711e-9
-0.406, -4.727e-9
-0.407, -4.741e-9
-0.408, -4.757e-9
-0.409, -4.773e-9
-0.410, -4.791e-9
-0.411, -4.814e-9
-0.412, -4.828e-9
-0.413, -4.844e-9
-0.414, -4.867e-9
-0.415, -4.882e-9
-0.416, -4.901e-9
-0.417, -4.925e-9
-0.418, -4.944e-9
-0.419, -4.958e-9
-0.420, -4.968e-9
-0.421, -4.982e-9
-0.422, -5.001e-9
-0.423, -5.015e-9
-0.424, -5.028e-9
-0.425, -5.046e-9
-0.426, -5.060e-9
-0.427, -5.075e-9
-0.428, -5.093e-9
-0.429, -5.112e-9
-0.430, -5.131e-9
-0.431, -5.143e-9
-0.432, -5.158e-9
-0.433, -5.175e-9
-0.434, -5.192e-9
-0.435, -5.206e-9
-0.436, -5.217e-9
-0.437, -5.232e-9
-0.438, -5.247e-9
-0.439, -5.263e-9
-0.440, -5.285e-9
-0.441, -5.299e-9
-0.442, -5.312e-9
-0.443, -5.328e-9
-0.444, -5.340e-9
-0.445, -5.355e-9
-0.446, -5.366e-9
-0.447, -5.380e-9
-0.448, -5.397e-9
-0.449, -5.408e-9
-0.450, -5.420e-9
-0.451, -5.438e-9
-0.452, -5.454e-9
-0.453, -5.465e-9
-0.454, -5.481e-9
-0.455, -5.500e-9
-0.456, -5.516e-9
-0.457, -5.527e-9
-0.458, -5.540e-9
-0.459, -5.558e-9
-0.460, -5.571e-9
-0.461, -5.589e-9
-0.462, -5.603e-9
-0.463, -5.617e-9
-0.464, -5.630e-9
-0.465, -5.654e-9
-0.466, -5.671e-9
-0.467, -5.687e-9
-0.468, -5.700e-9
-0.469, -5.715e-9
-0.470, -5.727e-9
-0.471, -5.735e-9
-0.472, -5.749e-9
-0.473, -5.770e-9
-0.474, -5.784e-9
-0.475, -5.794e-9
-0.476, -5.813e-9
-0.477, -5.824e-9
-0.478, -5.837e-9
-0.479, -5.849e-9
-0.480, -5.862e-9
-0.481, -5.878e-9
-0.482, -5.893e-9
-0.483, -5.908e-9
-0.484, -5.917e-9
-0.485, -5.927e-9
-0.486, -5.943e-9
-0.487, -5.965e-9
-0.488, -5.974e-9
-0.489, -5.987e-9
-0.490, -6.011e-9
-0.491, -6.028e-9
-0.492, -6.035e-9
-0.493, -6.042e-9
-0.494, -6.064e-9
-0.495, -6.083e-9
-0.496, -6.099e-9
-0.497, -6.122e-9
-0.498, -6.139e-9
-0.499, -6.157e-9
