Mar. 6, 2025   16:13:15
Cyclic Voltammetry
File: cv surface (incubation) (8).bin
Data Source:  Experiment
Instrument Model:  CHI920C
Ref. Electrode: 
Header: 
Note: 

Init E (V) = -0.5
High E (V) = 0.5
Low E (V) = -0.5
Init P/N = P
Scan Rate (V/s) = 0.05
Segment = 2
Sample Interval (V) = 0.001
Quiet Time (sec) = 10
Sensitivity (A/V) = 1e-7

Results:

Channel 1:
Segment 1:

Segment 2:

Potential/V, Current/A

-0.500, -4.526e-9
-0.499, -4.478e-9
-0.498, -4.439e-9
-0.497, -4.401e-9
-0.496, -4.363e-9
-0.495, -4.331e-9
-0.494, -4.305e-9
-0.493, -4.276e-9
-0.492, -4.243e-9
-0.491, -4.219e-9
-0.490, -4.192e-9
-0.489, -4.164e-9
-0.488, -4.138e-9
-0.487, -4.107e-9
-0.486, -4.077e-9
-0.485, -4.059e-9
-0.484, -4.027e-9
-0.483, -3.998e-9
-0.482, -3.979e-9
-0.481, -3.959e-9
-0.480, -3.932e-9
-0.479, -3.905e-9
-0.478, -3.883e-9
-0.477, -3.860e-9
-0.476, -3.832e-9
-0.475, -3.799e-9
-0.474, -3.775e-9
-0.473, -3.759e-9
-0.472, -3.741e-9
-0.471, -3.715e-9
-0.470, -3.690e-9
-0.469, -3.667e-9
-0.468, -3.645e-9
-0.467, -3.616e-9
-0.466, -3.590e-9
-0.465, -3.567e-9
-0.464, -3.543e-9
-0.463, -3.519e-9
-0.462, -3.499e-9
-0.461, -3.480e-9
-0.460, -3.461e-9
-0.459, -3.438e-9
-0.458, -3.413e-9
-0.457, -3.395e-9
-0.456, -3.372e-9
-0.455, -3.348e-9
-0.454, -3.330e-9
-0.453, -3.315e-9
-0.452, -3.293e-9
-0.451, -3.269e-9
-0.450, -3.246e-9
-0.449, -3.229e-9
-0.448, -3.211e-9
-0.447, -3.187e-9
-0.446, -3.163e-9
-0.445, -3.141e-9
-0.444, -3.126e-9
-0.443, -3.109e-9
-0.442, -3.089e-9
-0.441, -3.070e-9
-0.440, -3.047e-9
-0.439, -3.023e-9
-0.438, -2.998e-9
-0.437, -2.979e-9
-0.436, -2.963e-9
-0.435, -2.943e-9
-0.434, -2.920e-9
-0.433, -2.903e-9
-0.432, -2.890e-9
-0.431, -2.871e-9
-0.430, -2.848e-9
-0.429, -2.825e-9
-0.428, -2.807e-9
-0.427, -2.787e-9
-0.426, -2.772e-9
-0.425, -2.758e-9
-0.424, -2.741e-9
-0.423, -2.723e-9
-0.422, -2.699e-9
-0.421, -2.679e-9
-0.420, -2.665e-9
-0.419, -2.649e-9
-0.418, -2.629e-9
-0.417, -2.609e-9
-0.416, -2.593e-9
-0.415, -2.578e-9
-0.414, -2.561e-9
-0.413, -2.544e-9
-0.412, -2.530e-9
-0.411, -2.514e-9
-0.410, -2.496e-9
-0.409, -2.472e-9
-0.408, -2.452e-9
-0.407, -2.438e-9
-0.406, -2.419e-9
-0.405, -2.402e-9
-0.404, -2.384e-9
-0.403, -2.365e-9
-0.402, -2.348e-9
-0.401, -2.328e-9
-0.400, -2.310e-9
-0.399, -2.295e-9
-0.398, -2.283e-9
-0.397, -2.273e-9
-0.396, -2.255e-9
-0.395, -2.240e-9
-0.394, -2.225e-9
-0.393, -2.209e-9
-0.392, -2.193e-9
-0.391, -2.175e-9
-0.390, -2.163e-9
-0.389, -2.147e-9
-0.388, -2.133e-9
-0.387, -2.117e-9
-0.386, -2.099e-9
-0.385, -2.083e-9
-0.384, -2.070e-9
-0.383, -2.055e-9
-0.382, -2.043e-9
-0.381, -2.029e-9
-0.380, -2.016e-9
-0.379, -2.004e-9
-0.378, -1.990e-9
-0.377, -1.975e-9
-0.376, -1.959e-9
-0.375, -1.947e-9
-0.374, -1.935e-9
-0.373, -1.921e-9
-0.372, -1.907e-9
-0.371, -1.897e-9
-0.370, -1.886e-9
-0.369, -1.869e-9
-0.368, -1.855e-9
-0.367, -1.843e-9
-0.366, -1.831e-9
-0.365, -1.817e-9
-0.364, -1.802e-9
-0.363, -1.795e-9
-0.362, -1.786e-9
-0.361, -1.773e-9
-0.360, -1.761e-9
-0.359, -1.750e-9
-0.358, -1.740e-9
-0.357, -1.721e-9
-0.356, -1.704e-9
-0.355, -1.695e-9
-0.354, -1.690e-9
-0.353, -1.675e-9
-0.352, -1.661e-9
-0.351, -1.651e-9
-0.350, -1.644e-9
-0.349, -1.633e-9
-0.348, -1.618e-9
-0.347, -1.608e-9
-0.346, -1.602e-9
-0.345, -1.592e-9
-0.344, -1.576e-9
-0.343, -1.564e-9
-0.342, -1.558e-9
-0.341, -1.551e-9
-0.340, -1.536e-9
-0.339, -1.522e-9
-0.338, -1.515e-9
-0.337, -1.507e-9
-0.336, -1.491e-9
-0.335, -1.473e-9
-0.334, -1.467e-9
-0.333, -1.460e-9
-0.332, -1.447e-9
-0.331, -1.432e-9
-0.330, -1.423e-9
-0.329, -1.419e-9
-0.328, -1.410e-9
-0.327, -1.395e-9
-0.326, -1.383e-9
-0.325, -1.378e-9
-0.324, -1.370e-9
-0.323, -1.354e-9
-0.322, -1.343e-9
-0.321, -1.339e-9
-0.320, -1.331e-9
-0.319, -1.317e-9
-0.318, -1.308e-9
-0.317, -1.303e-9
-0.316, -1.297e-9
-0.315, -1.283e-9
-0.314, -1.271e-9
-0.313, -1.266e-9
-0.312, -1.259e-9
-0.311, -1.244e-9
-0.310, -1.229e-9
-0.309, -1.225e-9
-0.308, -1.220e-9
-0.307, -1.205e-9
-0.306, -1.190e-9
-0.305, -1.185e-9
-0.304, -1.184e-9
-0.303, -1.173e-9
-0.302, -1.159e-9
-0.301, -1.152e-9
-0.300, -1.150e-9
-0.299, -1.141e-9
-0.298, -1.125e-9
-0.297, -1.116e-9
-0.296, -1.115e-9
-0.295, -1.110e-9
-0.294, -1.094e-9
-0.293, -1.083e-9
-0.292, -1.082e-9
-0.291, -1.079e-9
-0.290, -1.065e-9
-0.289, -1.051e-9
-0.288, -1.048e-9
-0.287, -1.047e-9
-0.286, -1.034e-9
-0.285, -1.018e-9
-0.284, -1.013e-9
-0.283, -1.014e-9
-0.282, -1.001e-9
-0.281, -9.852e-10
-0.280, -9.789e-10
-0.279, -9.805e-10
-0.278, -9.714e-10
-0.277, -9.548e-10
-0.276, -9.492e-10
-0.275, -9.491e-10
-0.274, -9.434e-10
-0.273, -9.286e-10
-0.272, -9.177e-10
-0.271, -9.156e-10
-0.270, -9.116e-10
-0.269, -9.011e-10
-0.268, -8.907e-10
-0.267, -8.841e-10
-0.266, -8.811e-10
-0.265, -8.752e-10
-0.264, -8.653e-10
-0.263, -8.562e-10
-0.262, -8.521e-10
-0.261, -8.484e-10
-0.260, -8.406e-10
-0.259, -8.312e-10
-0.258, -8.253e-10
-0.257, -8.231e-10
-0.256, -8.183e-10
-0.255, -8.091e-10
-0.254, -8.017e-10
-0.253, -7.990e-10
-0.252, -7.945e-10
-0.251, -7.854e-10
-0.250, -7.762e-10
-0.249, -7.717e-10
-0.248, -7.660e-10
-0.247, -7.595e-10
-0.246, -7.512e-10
-0.245, -7.434e-10
-0.244, -7.377e-10
-0.243, -7.328e-10
-0.242, -7.254e-10
-0.241, -7.185e-10
-0.240, -7.120e-10
-0.239, -7.077e-10
-0.238, -7.025e-10
-0.237, -6.957e-10
-0.236, -6.894e-10
-0.235, -6.858e-10
-0.234, -6.803e-10
-0.233, -6.727e-10
-0.232, -6.660e-10
-0.231, -6.613e-10
-0.230, -6.561e-10
-0.229, -6.505e-10
-0.228, -6.431e-10
-0.227, -6.380e-10
-0.226, -6.323e-10
-0.225, -6.257e-10
-0.224, -6.203e-10
-0.223, -6.140e-10
-0.222, -6.097e-10
-0.221, -6.046e-10
-0.220, -6.009e-10
-0.219, -5.947e-10
-0.218, -5.886e-10
-0.217, -5.834e-10
-0.216, -5.796e-10
-0.215, -5.741e-10
-0.214, -5.662e-10
-0.213, -5.596e-10
-0.212, -5.588e-10
-0.211, -5.537e-10
-0.210, -5.447e-10
-0.209, -5.380e-10
-0.208, -5.344e-10
-0.207, -5.308e-10
-0.206, -5.219e-10
-0.205, -5.136e-10
-0.204, -5.112e-10
-0.203, -5.076e-10
-0.202, -4.996e-10
-0.201, -4.904e-10
-0.200, -4.859e-10
-0.199, -4.832e-10
-0.198, -4.783e-10
-0.197, -4.675e-10
-0.196, -4.617e-10
-0.195, -4.605e-10
-0.194, -4.558e-10
-0.193, -4.480e-10
-0.192, -4.417e-10
-0.191, -4.387e-10
-0.190, -4.369e-10
-0.189, -4.300e-10
-0.188, -4.201e-10
-0.187, -4.129e-10
-0.186, -4.109e-10
-0.185, -4.071e-10
-0.184, -3.991e-10
-0.183, -3.955e-10
-0.182, -3.936e-10
-0.181, -3.911e-10
-0.180, -3.836e-10
-0.179, -3.792e-10
-0.178, -3.752e-10
-0.177, -3.734e-10
-0.176, -3.659e-10
-0.175, -3.589e-10
-0.174, -3.558e-10
-0.173, -3.560e-10
-0.172, -3.510e-10
-0.171, -3.412e-10
-0.170, -3.359e-10
-0.169, -3.362e-10
-0.168, -3.337e-10
-0.167, -3.264e-10
-0.166, -3.222e-10
-0.165, -3.218e-10
-0.164, -3.201e-10
-0.163, -3.121e-10
-0.162, -3.052e-10
-0.161, -3.039e-10
-0.160, -3.018e-10
-0.159, -2.942e-10
-0.158, -2.847e-10
-0.157, -2.842e-10
-0.156, -2.832e-10
-0.155, -2.750e-10
-0.154, -2.653e-10
-0.153, -2.638e-10
-0.152, -2.630e-10
-0.151, -2.561e-10
-0.150, -2.464e-10
-0.149, -2.430e-10
-0.148, -2.441e-10
-0.147, -2.375e-10
-0.146, -2.276e-10
-0.145, -2.240e-10
-0.144, -2.249e-10
-0.143, -2.219e-10
-0.142, -2.128e-10
-0.141, -2.082e-10
-0.140, -2.080e-10
-0.139, -2.060e-10
-0.138, -1.950e-10
-0.137, -1.883e-10
-0.136, -1.841e-10
-0.135, -1.805e-10
-0.134, -1.738e-10
-0.133, -1.651e-10
-0.132, -1.701e-10
-0.131, -1.754e-10
-0.130, -1.701e-10
-0.129, -1.627e-10
-0.128, -1.600e-10
-0.127, -1.590e-10
-0.126, -1.526e-10
-0.125, -1.465e-10
-0.124, -1.445e-10
-0.123, -1.446e-10
-0.122, -1.418e-10
-0.121, -1.356e-10
-0.120, -1.291e-10
-0.119, -1.276e-10
-0.118, -1.270e-10
-0.117, -1.206e-10
-0.116, -1.157e-10
-0.115, -1.141e-10
-0.114, -1.123e-10
-0.113, -1.068e-10
-0.112, -1.011e-10
-0.111, -9.949e-11
-0.110, -9.813e-11
-0.109, -9.267e-11
-0.108, -8.808e-11
-0.107, -8.272e-11
-0.106, -8.068e-11
-0.105, -7.522e-11
-0.104, -6.771e-11
-0.103, -6.644e-11
-0.102, -6.830e-11
-0.101, -6.644e-11
-0.100, -5.787e-11
-0.099, -5.445e-11
-0.098, -5.543e-11
-0.097, -5.055e-11
-0.096, -4.207e-11
-0.095, -3.788e-11
-0.094, -3.925e-11
-0.093, -3.544e-11
-0.092, -2.618e-11
-0.091, -2.258e-11
-0.090, -2.326e-11
-0.089, -2.150e-11
-0.088, -1.400e-11
-0.087, -8.442e-12
-0.086, -6.980e-12
-0.085, -8.442e-12
-0.084, -2.301e-12
-0.083, 5.595e-12
-0.082, 7.545e-12
-0.081, 6.570e-12
-0.080, 9.982e-12
-0.079, 1.729e-11
-0.078, 2.187e-11
-0.077, 1.944e-11
-0.076, 2.080e-11
-0.075, 2.772e-11
-0.074, 3.123e-11
-0.073, 3.094e-11
-0.072, 3.162e-11
-0.071, 3.689e-11
-0.070, 4.313e-11
-0.069, 4.615e-11
-0.068, 4.498e-11
-0.067, 4.975e-11
-0.066, 5.648e-11
-0.065, 5.746e-11
-0.064, 5.814e-11
-0.063, 6.165e-11
-0.062, 6.876e-11
-0.061, 7.490e-11
-0.060, 7.637e-11
-0.059, 8.046e-11
-0.058, 8.465e-11
-0.057, 9.109e-11
-0.056, 9.226e-11
-0.055, 9.313e-11
-0.054, 9.791e-11
-0.053, 1.031e-10
-0.052, 1.041e-10
-0.051, 1.068e-10
-0.050, 1.106e-10
-0.049, 1.148e-10
-0.048, 1.196e-10
-0.047, 1.214e-10
-0.046, 1.293e-10
-0.045, 1.407e-10
-0.044, 1.505e-10
-0.043, 1.505e-10
-0.042, 1.414e-10
-0.041, 1.370e-10
-0.040, 1.389e-10
-0.039, 1.412e-10
-0.038, 1.439e-10
-0.037, 1.428e-10
-0.036, 1.468e-10
-0.035, 1.504e-10
-0.034, 1.521e-10
-0.033, 1.503e-10
-0.032, 1.493e-10
-0.031, 1.556e-10
-0.030, 1.551e-10
-0.029, 1.564e-10
-0.028, 1.626e-10
-0.027, 1.642e-10
-0.026, 1.649e-10
-0.025, 1.644e-10
-0.024, 1.709e-10
-0.023, 1.760e-10
-0.022, 1.768e-10
-0.021, 1.844e-10
-0.020, 1.930e-10
-0.019, 1.998e-10
-0.018, 2.016e-10
-0.017, 2.038e-10
-0.016, 1.960e-10
-0.015, 1.991e-10
-0.014, 2.066e-10
-0.013, 2.071e-10
-0.012, 2.126e-10
-0.011, 2.232e-10
-0.010, 2.242e-10
-0.009, 2.270e-10
-0.008, 2.239e-10
-0.007, 2.211e-10
-0.006, 2.184e-10
-0.005, 2.212e-10
-0.004, 2.250e-10
-0.003, 2.284e-10
-0.002, 2.339e-10
-0.001, 2.438e-10
0.000, 2.392e-10
0.001, 2.264e-10
0.002, 2.265e-10
0.003, 2.365e-10
0.004, 2.434e-10
0.005, 2.503e-10
0.006, 2.587e-10
0.007, 2.616e-10
0.008, 2.585e-10
0.009, 2.583e-10
0.010, 2.632e-10
0.011, 2.667e-10
0.012, 2.661e-10
0.013, 2.643e-10
0.014, 2.632e-10
0.015, 2.689e-10
0.016, 2.705e-10
0.017, 2.720e-10
0.018, 2.717e-10
0.019, 2.773e-10
0.020, 2.923e-10
0.021, 2.967e-10
0.022, 3.038e-10
0.023, 3.090e-10
0.024, 3.104e-10
0.025, 3.105e-10
0.026, 3.159e-10
0.027, 3.200e-10
0.028, 3.169e-10
0.029, 3.114e-10
0.030, 3.137e-10
0.031, 3.093e-10
0.032, 3.043e-10
0.033, 3.124e-10
0.034, 3.178e-10
0.035, 3.164e-10
0.036, 3.170e-10
0.037, 3.177e-10
0.038, 3.248e-10
0.039, 3.365e-10
0.040, 3.417e-10
0.041, 3.539e-10
0.042, 3.604e-10
0.043, 3.689e-10
0.044, 3.776e-10
0.045, 3.761e-10
0.046, 3.718e-10
0.047, 3.783e-10
0.048, 3.772e-10
0.049, 3.739e-10
0.050, 3.779e-10
0.051, 3.816e-10
0.052, 3.881e-10
0.053, 3.821e-10
0.054, 3.852e-10
0.055, 4.105e-10
0.056, 4.294e-10
0.057, 4.308e-10
0.058, 4.157e-10
0.059, 4.160e-10
0.060, 4.292e-10
0.061, 4.303e-10
0.062, 4.265e-10
0.063, 4.223e-10
0.064, 4.324e-10
0.065, 4.440e-10
0.066, 4.390e-10
0.067, 4.581e-10
0.068, 5.386e-10
0.069, 5.773e-10
0.070, 5.923e-10
0.071, 6.186e-10
0.072, 6.326e-10
0.073, 6.448e-10
0.074, 6.459e-10
0.075, 6.428e-10
0.076, 6.363e-10
0.077, 6.344e-10
0.078, 6.460e-10
0.079, 6.518e-10
0.080, 6.549e-10
0.081, 6.706e-10
0.082, 6.859e-10
0.083, 6.914e-10
0.084, 7.135e-10
0.085, 7.466e-10
0.086, 7.569e-10
0.087, 7.636e-10
0.088, 7.725e-10
0.089, 7.797e-10
0.090, 7.779e-10
0.091, 7.713e-10
0.092, 7.646e-10
0.093, 7.699e-10
0.094, 7.738e-10
0.095, 7.912e-10
0.096, 7.932e-10
0.097, 7.955e-10
0.098, 8.080e-10
0.099, 8.294e-10
0.100, 8.552e-10
0.101, 8.662e-10
0.102, 8.650e-10
0.103, 8.671e-10
0.104, 8.648e-10
0.105, 8.701e-10
0.106, 8.740e-10
0.107, 8.793e-10
0.108, 8.755e-10
0.109, 8.773e-10
0.110, 8.911e-10
0.111, 9.044e-10
0.112, 9.080e-10
0.113, 9.110e-10
0.114, 9.201e-10
0.115, 9.170e-10
0.116, 9.208e-10
0.117, 9.215e-10
0.118, 9.298e-10
0.119, 9.414e-10
0.120, 9.411e-10
0.121, 9.362e-10
0.122, 9.431e-10
0.123, 9.545e-10
0.124, 9.605e-10
0.125, 9.646e-10
0.126, 9.680e-10
0.127, 9.760e-10
0.128, 9.782e-10
0.129, 9.741e-10
0.130, 9.757e-10
0.131, 9.806e-10
0.132, 9.830e-10
0.133, 9.906e-10
0.134, 9.980e-10
0.135, 1.002e-9
0.136, 1.001e-9
0.137, 1.002e-9
0.138, 1.005e-9
0.139, 1.011e-9
0.140, 1.016e-9
0.141, 1.020e-9
0.142, 1.026e-9
0.143, 1.035e-9
0.144, 1.040e-9
0.145, 1.042e-9
0.146, 1.035e-9
0.147, 1.032e-9
0.148, 1.030e-9
0.149, 1.035e-9
0.150, 1.041e-9
0.151, 1.045e-9
0.152, 1.051e-9
0.153, 1.066e-9
0.154, 1.070e-9
0.155, 1.076e-9
0.156, 1.078e-9
0.157, 1.089e-9
0.158, 1.098e-9
0.159, 1.102e-9
0.160, 1.099e-9
0.161, 1.105e-9
0.162, 1.111e-9
0.163, 1.111e-9
0.164, 1.109e-9
0.165, 1.122e-9
0.166, 1.128e-9
0.167, 1.133e-9
0.168, 1.136e-9
0.169, 1.137e-9
0.170, 1.142e-9
0.171, 1.147e-9
0.172, 1.138e-9
0.173, 1.143e-9
0.174, 1.155e-9
0.175, 1.156e-9
0.176, 1.163e-9
0.177, 1.167e-9
0.178, 1.168e-9
0.179, 1.167e-9
0.180, 1.160e-9
0.181, 1.165e-9
0.182, 1.171e-9
0.183, 1.185e-9
0.184, 1.193e-9
0.185, 1.197e-9
0.186, 1.204e-9
0.187, 1.212e-9
0.188, 1.216e-9
0.189, 1.222e-9
0.190, 1.234e-9
0.191, 1.231e-9
0.192, 1.231e-9
0.193, 1.235e-9
0.194, 1.240e-9
0.195, 1.240e-9
0.196, 1.240e-9
0.197, 1.241e-9
0.198, 1.245e-9
0.199, 1.249e-9
0.200, 1.253e-9
0.201, 1.248e-9
0.202, 1.250e-9
0.203, 1.255e-9
0.204, 1.260e-9
0.205, 1.267e-9
0.206, 1.273e-9
0.207, 1.281e-9
0.208, 1.286e-9
0.209, 1.291e-9
0.210, 1.298e-9
0.211, 1.305e-9
0.212, 1.309e-9
0.213, 1.309e-9
0.214, 1.309e-9
0.215, 1.305e-9
0.216, 1.308e-9
0.217, 1.314e-9
0.218, 1.321e-9
0.219, 1.322e-9
0.220, 1.322e-9
0.221, 1.318e-9
0.222, 1.323e-9
0.223, 1.330e-9
0.224, 1.339e-9
0.225, 1.347e-9
0.226, 1.346e-9
0.227, 1.345e-9
0.228, 1.343e-9
0.229, 1.351e-9
0.230, 1.355e-9
0.231, 1.351e-9
0.232, 1.349e-9
0.233, 1.351e-9
0.234, 1.353e-9
0.235, 1.358e-9
0.236, 1.366e-9
0.237, 1.372e-9
0.238, 1.369e-9
0.239, 1.366e-9
0.240, 1.373e-9
0.241, 1.391e-9
0.242, 1.402e-9
0.243, 1.407e-9
0.244, 1.406e-9
0.245, 1.408e-9
0.246, 1.411e-9
0.247, 1.415e-9
0.248, 1.420e-9
0.249, 1.421e-9
0.250, 1.422e-9
0.251, 1.424e-9
0.252, 1.424e-9
0.253, 1.427e-9
0.254, 1.434e-9
0.255, 1.442e-9
0.256, 1.444e-9
0.257, 1.441e-9
0.258, 1.451e-9
0.259, 1.458e-9
0.260, 1.459e-9
0.261, 1.463e-9
0.262, 1.469e-9
0.263, 1.474e-9
0.264, 1.488e-9
0.265, 1.489e-9
0.266, 1.491e-9
0.267, 1.499e-9
0.268, 1.499e-9
0.269, 1.493e-9
0.270, 1.501e-9
0.271, 1.512e-9
0.272, 1.511e-9
0.273, 1.509e-9
0.274, 1.512e-9
0.275, 1.530e-9
0.276, 1.539e-9
0.277, 1.538e-9
0.278, 1.542e-9
0.279, 1.553e-9
0.280, 1.560e-9
0.281, 1.555e-9
0.282, 1.558e-9
0.283, 1.569e-9
0.284, 1.568e-9
0.285, 1.568e-9
0.286, 1.580e-9
0.287, 1.590e-9
0.288, 1.592e-9
0.289, 1.594e-9
0.290, 1.602e-9
0.291, 1.606e-9
0.292, 1.611e-9
0.293, 1.614e-9
0.294, 1.619e-9
0.295, 1.628e-9
0.296, 1.635e-9
0.297, 1.636e-9
0.298, 1.640e-9
0.299, 1.650e-9
0.300, 1.657e-9
0.301, 1.664e-9
0.302, 1.669e-9
0.303, 1.680e-9
0.304, 1.687e-9
0.305, 1.687e-9
0.306, 1.683e-9
0.307, 1.693e-9
0.308, 1.705e-9
0.309, 1.711e-9
0.310, 1.710e-9
0.311, 1.715e-9
0.312, 1.725e-9
0.313, 1.733e-9
0.314, 1.731e-9
0.315, 1.738e-9
0.316, 1.746e-9
0.317, 1.756e-9
0.318, 1.758e-9
0.319, 1.762e-9
0.320, 1.771e-9
0.321, 1.778e-9
0.322, 1.780e-9
0.323, 1.783e-9
0.324, 1.790e-9
0.325, 1.797e-9
0.326, 1.803e-9
0.327, 1.805e-9
0.328, 1.810e-9
0.329, 1.816e-9
0.330, 1.820e-9
0.331, 1.821e-9
0.332, 1.827e-9
0.333, 1.838e-9
0.334, 1.845e-9
0.335, 1.847e-9
0.336, 1.854e-9
0.337, 1.863e-9
0.338, 1.866e-9
0.339, 1.870e-9
0.340, 1.876e-9
0.341, 1.882e-9
0.342, 1.889e-9
0.343, 1.898e-9
0.344, 1.902e-9
0.345, 1.907e-9
0.346, 1.909e-9
0.347, 1.916e-9
0.348, 1.917e-9
0.349, 1.928e-9
0.350, 1.936e-9
0.351, 1.933e-9
0.352, 1.937e-9
0.353, 1.943e-9
0.354, 1.946e-9
0.355, 1.951e-9
0.356, 1.960e-9
0.357, 1.971e-9
0.358, 1.974e-9
0.359, 1.979e-9
0.360, 1.982e-9
0.361, 1.992e-9
0.362, 1.999e-9
0.363, 2.002e-9
0.364, 2.009e-9
0.365, 2.019e-9
0.366, 2.025e-9
0.367, 2.024e-9
0.368, 2.035e-9
0.369, 2.048e-9
0.370, 2.060e-9
0.371, 2.060e-9
0.372, 2.056e-9
0.373, 2.061e-9
0.374, 2.070e-9
0.375, 2.075e-9
0.376, 2.081e-9
0.377, 2.096e-9
0.378, 2.104e-9
0.379, 2.113e-9
0.380, 2.117e-9
0.381, 2.118e-9
0.382, 2.125e-9
0.383, 2.125e-9
0.384, 2.126e-9
0.385, 2.138e-9
0.386, 2.148e-9
0.387, 2.154e-9
0.388, 2.158e-9
0.389, 2.163e-9
0.390, 2.169e-9
0.391, 2.184e-9
0.392, 2.187e-9
0.393, 2.185e-9
0.394, 2.197e-9
0.395, 2.205e-9
0.396, 2.211e-9
0.397, 2.218e-9
0.398, 2.224e-9
0.399, 2.230e-9
0.400, 2.234e-9
0.401, 2.234e-9
0.402, 2.241e-9
0.403, 2.248e-9
0.404, 2.249e-9
0.405, 2.249e-9
0.406, 2.256e-9
0.407, 2.266e-9
0.408, 2.269e-9
0.409, 2.270e-9
0.410, 2.274e-9
0.411, 2.283e-9
0.412, 2.287e-9
0.413, 2.289e-9
0.414, 2.293e-9
0.415, 2.297e-9
0.416, 2.305e-9
0.417, 2.312e-9
0.418, 2.319e-9
0.419, 2.328e-9
0.420, 2.333e-9
0.421, 2.337e-9
0.422, 2.343e-9
0.423, 2.348e-9
0.424, 2.351e-9
0.425, 2.356e-9
0.426, 2.370e-9
0.427, 2.376e-9
0.428, 2.382e-9
0.429, 2.386e-9
0.430, 2.389e-9
0.431, 2.400e-9
0.432, 2.403e-9
0.433, 2.402e-9
0.434, 2.407e-9
0.435, 2.424e-9
0.436, 2.434e-9
0.437, 2.437e-9
0.438, 2.443e-9
0.439, 2.450e-9
0.440, 2.459e-9
0.441, 2.466e-9
0.442, 2.465e-9
0.443, 2.470e-9
0.444, 2.476e-9
0.445, 2.482e-9
0.446, 2.485e-9
0.447, 2.488e-9
0.448, 2.490e-9
0.449, 2.492e-9
0.450, 2.504e-9
0.451, 2.512e-9
0.452, 2.516e-9
0.453, 2.522e-9
0.454, 2.523e-9
0.455, 2.531e-9
0.456, 2.543e-9
0.457, 2.557e-9
0.458, 2.563e-9
0.459, 2.563e-9
0.460, 2.564e-9
0.461, 2.572e-9
0.462, 2.573e-9
0.463, 2.580e-9
0.464, 2.588e-9
0.465, 2.597e-9
0.466, 2.607e-9
0.467, 2.615e-9
0.468, 2.616e-9
0.469, 2.621e-9
0.470, 2.628e-9
0.471, 2.630e-9
0.472, 2.637e-9
0.473, 2.651e-9
0.474, 2.658e-9
0.475, 2.663e-9
0.476, 2.669e-9
0.477, 2.671e-9
0.478, 2.675e-9
0.479, 2.684e-9
0.480, 2.681e-9
0.481, 2.687e-9
0.482, 2.691e-9
0.483, 2.694e-9
0.484, 2.707e-9
0.485, 2.709e-9
0.486, 2.714e-9
0.487, 2.719e-9
0.488, 2.726e-9
0.489, 2.729e-9
0.490, 2.735e-9
0.491, 2.741e-9
0.492, 2.746e-9
0.493, 2.752e-9
0.494, 2.756e-9
0.495, 2.765e-9
0.496, 2.770e-9
0.497, 2.768e-9
0.498, 2.772e-9
0.499, 2.785e-9
0.500, 2.765e-9
0.499, 2.679e-9
0.498, 2.611e-9
0.497, 2.573e-9
0.496, 2.543e-9
0.495, 2.506e-9
0.494, 2.468e-9
0.493, 2.448e-9
0.492, 2.434e-9
0.491, 2.409e-9
0.490, 2.379e-9
0.489, 2.352e-9
0.488, 2.337e-9
0.487, 2.317e-9
0.486, 2.289e-9
0.485, 2.264e-9
0.484, 2.248e-9
0.483, 2.236e-9
0.482, 2.216e-9
0.481, 2.196e-9
0.480, 2.178e-9
0.479, 2.164e-9
0.478, 2.147e-9
0.477, 2.132e-9
0.476, 2.118e-9
0.475, 2.111e-9
0.474, 2.100e-9
0.473, 2.080e-9
0.472, 2.064e-9
0.471, 2.052e-9
0.470, 2.047e-9
0.469, 2.030e-9
0.468, 2.015e-9
0.467, 2.007e-9
0.466, 1.999e-9
0.465, 1.982e-9
0.464, 1.965e-9
0.463, 1.961e-9
0.462, 1.954e-9
0.461, 1.938e-9
0.460, 1.926e-9
0.459, 1.915e-9
0.458, 1.904e-9
0.457, 1.890e-9
0.456, 1.878e-9
0.455, 1.868e-9
0.454, 1.859e-9
0.453, 1.849e-9
0.452, 1.836e-9
0.451, 1.828e-9
0.450, 1.823e-9
0.449, 1.813e-9
0.448, 1.800e-9
0.447, 1.793e-9
0.446, 1.785e-9
0.445, 1.773e-9
0.444, 1.757e-9
0.443, 1.749e-9
0.442, 1.747e-9
0.441, 1.737e-9
0.440, 1.723e-9
0.439, 1.713e-9
0.438, 1.709e-9
0.437, 1.703e-9
0.436, 1.687e-9
0.435, 1.674e-9
0.434, 1.671e-9
0.433, 1.666e-9
0.432, 1.651e-9
0.431, 1.635e-9
0.430, 1.632e-9
0.429, 1.629e-9
0.428, 1.619e-9
0.427, 1.603e-9
0.426, 1.597e-9
0.425, 1.595e-9
0.424, 1.585e-9
0.423, 1.569e-9
0.422, 1.561e-9
0.421, 1.561e-9
0.420, 1.553e-9
0.419, 1.537e-9
0.418, 1.527e-9
0.417, 1.523e-9
0.416, 1.517e-9
0.415, 1.506e-9
0.414, 1.494e-9
0.413, 1.489e-9
0.412, 1.487e-9
0.411, 1.477e-9
0.410, 1.463e-9
0.409, 1.462e-9
0.408, 1.460e-9
0.407, 1.450e-9
0.406, 1.436e-9
0.405, 1.428e-9
0.404, 1.427e-9
0.403, 1.419e-9
0.402, 1.403e-9
0.401, 1.391e-9
0.400, 1.390e-9
0.399, 1.386e-9
0.398, 1.371e-9
0.397, 1.358e-9
0.396, 1.354e-9
0.395, 1.351e-9
0.394, 1.341e-9
0.393, 1.327e-9
0.392, 1.322e-9
0.391, 1.319e-9
0.390, 1.308e-9
0.389, 1.295e-9
0.388, 1.288e-9
0.387, 1.287e-9
0.386, 1.279e-9
0.385, 1.268e-9
0.384, 1.259e-9
0.383, 1.255e-9
0.382, 1.251e-9
0.381, 1.242e-9
0.380, 1.230e-9
0.379, 1.224e-9
0.378, 1.220e-9
0.377, 1.212e-9
0.376, 1.198e-9
0.375, 1.189e-9
0.374, 1.188e-9
0.373, 1.179e-9
0.372, 1.163e-9
0.371, 1.154e-9
0.370, 1.154e-9
0.369, 1.148e-9
0.368, 1.139e-9
0.367, 1.129e-9
0.366, 1.124e-9
0.365, 1.121e-9
0.364, 1.113e-9
0.363, 1.102e-9
0.362, 1.096e-9
0.361, 1.093e-9
0.360, 1.088e-9
0.359, 1.078e-9
0.358, 1.068e-9
0.357, 1.063e-9
0.356, 1.059e-9
0.355, 1.051e-9
0.354, 1.039e-9
0.353, 1.033e-9
0.352, 1.031e-9
0.351, 1.025e-9
0.350, 1.015e-9
0.349, 1.007e-9
0.348, 1.006e-9
0.347, 9.994e-10
0.346, 9.906e-10
0.345, 9.807e-10
0.344, 9.751e-10
0.343, 9.704e-10
0.342, 9.635e-10
0.341, 9.531e-10
0.340, 9.447e-10
0.339, 9.420e-10
0.338, 9.346e-10
0.337, 9.247e-10
0.336, 9.169e-10
0.335, 9.117e-10
0.334, 9.068e-10
0.333, 8.984e-10
0.332, 8.902e-10
0.331, 8.850e-10
0.330, 8.806e-10
0.329, 8.750e-10
0.328, 8.667e-10
0.327, 8.592e-10
0.326, 8.536e-10
0.325, 8.453e-10
0.324, 8.377e-10
0.323, 8.312e-10
0.322, 8.261e-10
0.321, 8.193e-10
0.320, 8.119e-10
0.319, 8.076e-10
0.318, 8.025e-10
0.317, 7.953e-10
0.316, 7.856e-10
0.315, 7.819e-10
0.314, 7.777e-10
0.313, 7.709e-10
0.312, 7.628e-10
0.311, 7.578e-10
0.310, 7.543e-10
0.309, 7.477e-10
0.308, 7.401e-10
0.307, 7.338e-10
0.306, 7.312e-10
0.305, 7.248e-10
0.304, 7.153e-10
0.303, 7.080e-10
0.302, 7.045e-10
0.301, 6.996e-10
0.300, 6.914e-10
0.299, 6.845e-10
0.298, 6.805e-10
0.297, 6.760e-10
0.296, 6.695e-10
0.295, 6.634e-10
0.294, 6.593e-10
0.293, 6.548e-10
0.292, 6.491e-10
0.291, 6.430e-10
0.290, 6.370e-10
0.289, 6.312e-10
0.288, 6.256e-10
0.287, 6.186e-10
0.286, 6.133e-10
0.285, 6.089e-10
0.284, 6.038e-10
0.283, 5.996e-10
0.282, 5.934e-10
0.281, 5.885e-10
0.280, 5.843e-10
0.279, 5.785e-10
0.278, 5.736e-10
0.277, 5.686e-10
0.276, 5.630e-10
0.275, 5.560e-10
0.274, 5.488e-10
0.273, 5.446e-10
0.272, 5.418e-10
0.271, 5.349e-10
0.270, 5.286e-10
0.269, 5.250e-10
0.268, 5.230e-10
0.267, 5.167e-10
0.266, 5.080e-10
0.265, 5.028e-10
0.264, 5.012e-10
0.263, 4.987e-10
0.262, 4.893e-10
0.261, 4.810e-10
0.260, 4.795e-10
0.259, 4.767e-10
0.258, 4.689e-10
0.257, 4.589e-10
0.256, 4.534e-10
0.255, 4.532e-10
0.254, 4.469e-10
0.253, 4.368e-10
0.252, 4.303e-10
0.251, 4.297e-10
0.250, 4.255e-10
0.249, 4.177e-10
0.248, 4.106e-10
0.247, 4.081e-10
0.246, 4.071e-10
0.245, 4.010e-10
0.244, 3.940e-10
0.243, 3.912e-10
0.242, 3.883e-10
0.241, 3.840e-10
0.240, 3.770e-10
0.239, 3.719e-10
0.238, 3.682e-10
0.237, 3.652e-10
0.236, 3.601e-10
0.235, 3.555e-10
0.234, 3.503e-10
0.233, 3.451e-10
0.232, 3.421e-10
0.231, 3.371e-10
0.230, 3.307e-10
0.229, 3.269e-10
0.228, 3.251e-10
0.227, 3.223e-10
0.226, 3.140e-10
0.225, 3.083e-10
0.224, 3.082e-10
0.223, 3.065e-10
0.222, 2.983e-10
0.221, 2.904e-10
0.220, 2.886e-10
0.219, 2.875e-10
0.218, 2.810e-10
0.217, 2.724e-10
0.216, 2.707e-10
0.215, 2.695e-10
0.214, 2.647e-10
0.213, 2.569e-10
0.212, 2.530e-10
0.211, 2.524e-10
0.210, 2.498e-10
0.209, 2.413e-10
0.208, 2.331e-10
0.207, 2.318e-10
0.206, 2.316e-10
0.205, 2.253e-10
0.204, 2.147e-10
0.203, 2.110e-10
0.202, 2.136e-10
0.201, 2.087e-10
0.200, 1.984e-10
0.199, 1.927e-10
0.198, 1.953e-10
0.197, 1.920e-10
0.196, 1.807e-10
0.195, 1.730e-10
0.194, 1.761e-10
0.193, 1.764e-10
0.192, 1.664e-10
0.191, 1.583e-10
0.190, 1.596e-10
0.189, 1.589e-10
0.188, 1.518e-10
0.187, 1.436e-10
0.186, 1.437e-10
0.185, 1.456e-10
0.184, 1.392e-10
0.183, 1.300e-10
0.182, 1.289e-10
0.181, 1.314e-10
0.180, 1.256e-10
0.179, 1.165e-10
0.178, 1.129e-10
0.177, 1.148e-10
0.176, 1.109e-10
0.175, 1.018e-10
0.174, 9.635e-11
0.173, 9.889e-11
0.172, 9.479e-11
0.171, 8.563e-11
0.170, 8.017e-11
0.169, 8.163e-11
0.168, 7.871e-11
0.167, 6.886e-11
0.166, 6.467e-11
0.165, 6.545e-11
0.164, 6.233e-11
0.163, 5.219e-11
0.162, 4.742e-11
0.161, 4.819e-11
0.160, 4.586e-11
0.159, 3.825e-11
0.158, 3.270e-11
0.157, 3.387e-11
0.156, 3.153e-11
0.155, 2.285e-11
0.154, 1.564e-11
0.153, 1.583e-11
0.152, 1.622e-11
0.151, 9.202e-12
0.150, 1.306e-12
0.149, -1.521e-12
0.148, -5.459e-13
0.147, -5.810e-12
0.146, -1.566e-11
0.145, -1.858e-11
0.144, -1.614e-11
0.143, -2.033e-11
0.142, -3.135e-11
0.141, -3.661e-11
0.140, -3.310e-11
0.139, -3.613e-11
0.138, -4.685e-11
0.137, -5.592e-11
0.136, -5.475e-11
0.135, -5.465e-11
0.134, -6.167e-11
0.133, -6.986e-11
0.132, -7.005e-11
0.131, -6.888e-11
0.130, -7.600e-11
0.129, -8.399e-11
0.128, -8.643e-11
0.127, -8.584e-11
0.126, -9.042e-11
0.125, -9.783e-11
0.124, -1.004e-10
0.123, -1.002e-10
0.122, -1.039e-10
0.121, -1.102e-10
0.120, -1.132e-10
0.119, -1.143e-10
0.118, -1.168e-10
0.117, -1.224e-10
0.116, -1.265e-10
0.115, -1.276e-10
0.114, -1.317e-10
0.113, -1.377e-10
0.112, -1.417e-10
0.111, -1.440e-10
0.110, -1.466e-10
0.109, -1.518e-10
0.108, -1.559e-10
0.107, -1.587e-10
0.106, -1.613e-10
0.105, -1.653e-10
0.104, -1.708e-10
0.103, -1.729e-10
0.102, -1.767e-10
0.101, -1.805e-10
0.100, -1.865e-10
0.099, -1.904e-10
0.098, -1.918e-10
0.097, -1.947e-10
0.096, -2.000e-10
0.095, -2.040e-10
0.094, -2.054e-10
0.093, -2.094e-10
0.092, -2.141e-10
0.091, -2.179e-10
0.090, -2.190e-10
0.089, -2.223e-10
0.088, -2.270e-10
0.087, -2.321e-10
0.086, -2.358e-10
0.085, -2.391e-10
0.084, -2.451e-10
0.083, -2.493e-10
0.082, -2.517e-10
0.081, -2.552e-10
0.080, -2.595e-10
0.079, -2.655e-10
0.078, -2.695e-10
0.077, -2.731e-10
0.076, -2.768e-10
0.075, -2.821e-10
0.074, -2.855e-10
0.073, -2.904e-10
0.072, -2.936e-10
0.071, -2.979e-10
0.070, -3.025e-10
0.069, -3.043e-10
0.068, -3.090e-10
0.067, -3.140e-10
0.066, -3.183e-10
0.065, -3.201e-10
0.064, -3.225e-10
0.063, -3.273e-10
0.062, -3.310e-10
0.061, -3.339e-10
0.060, -3.372e-10
0.059, -3.411e-10
0.058, -3.457e-10
0.057, -3.483e-10
0.056, -3.515e-10
0.055, -3.544e-10
0.054, -3.571e-10
0.053, -3.613e-10
0.052, -3.654e-10
0.051, -3.688e-10
0.050, -3.723e-10
0.049, -3.771e-10
0.048, -3.815e-10
0.047, -3.848e-10
0.046, -3.886e-10
0.045, -3.931e-10
0.044, -3.996e-10
0.043, -4.014e-10
0.042, -4.021e-10
0.041, -4.090e-10
0.040, -4.164e-10
0.039, -4.179e-10
0.038, -4.179e-10
0.037, -4.240e-10
0.036, -4.314e-10
0.035, -4.350e-10
0.034, -4.342e-10
0.033, -4.393e-10
0.032, -4.483e-10
0.031, -4.518e-10
0.030, -4.515e-10
0.029, -4.572e-10
0.028, -4.654e-10
0.027, -4.696e-10
0.026, -4.703e-10
0.025, -4.731e-10
0.024, -4.815e-10
0.023, -4.864e-10
0.022, -4.874e-10
0.021, -4.911e-10
0.020, -4.999e-10
0.019, -5.058e-10
0.018, -5.083e-10
0.017, -5.108e-10
0.016, -5.191e-10
0.015, -5.270e-10
0.014, -5.292e-10
0.013, -5.311e-10
0.012, -5.395e-10
0.011, -5.477e-10
0.010, -5.492e-10
0.009, -5.512e-10
0.008, -5.590e-10
0.007, -5.683e-10
0.006, -5.695e-10
0.005, -5.684e-10
0.004, -5.757e-10
0.003, -5.866e-10
0.002, -5.895e-10
0.001, -5.871e-10
-0.000, -5.919e-10
-0.001, -6.040e-10
-0.002, -6.086e-10
-0.003, -6.057e-10
-0.004, -6.106e-10
-0.005, -6.230e-10
-0.006, -6.299e-10
-0.007, -6.272e-10
-0.008, -6.294e-10
-0.009, -6.412e-10
-0.010, -6.509e-10
-0.011, -6.475e-10
-0.012, -6.467e-10
-0.013, -6.570e-10
-0.014, -6.696e-10
-0.015, -6.697e-10
-0.016, -6.678e-10
-0.017, -6.766e-10
-0.018, -6.908e-10
-0.019, -6.939e-10
-0.020, -6.907e-10
-0.021, -6.958e-10
-0.022, -7.090e-10
-0.023, -7.158e-10
-0.024, -7.124e-10
-0.025, -7.159e-10
-0.026, -7.284e-10
-0.027, -7.384e-10
-0.028, -7.375e-10
-0.029, -7.384e-10
-0.030, -7.502e-10
-0.031, -7.622e-10
-0.032, -7.643e-10
-0.033, -7.642e-10
-0.034, -7.743e-10
-0.035, -7.853e-10
-0.036, -7.893e-10
-0.037, -7.902e-10
-0.038, -7.972e-10
-0.039, -8.069e-10
-0.040, -8.110e-10
-0.041, -8.129e-10
-0.042, -8.193e-10
-0.043, -8.286e-10
-0.044, -8.323e-10
-0.045, -8.350e-10
-0.046, -8.428e-10
-0.047, -8.511e-10
-0.048, -8.556e-10
-0.049, -8.592e-10
-0.050, -8.658e-10
-0.051, -8.752e-10
-0.052, -8.806e-10
-0.053, -8.835e-10
-0.054, -8.905e-10
-0.055, -8.996e-10
-0.056, -9.070e-10
-0.057, -9.114e-10
-0.058, -9.173e-10
-0.059, -9.250e-10
-0.060, -9.332e-10
-0.061, -9.373e-10
-0.062, -9.422e-10
-0.063, -9.511e-10
-0.064, -9.588e-10
-0.065, -9.619e-10
-0.066, -9.673e-10
-0.067, -9.768e-10
-0.068, -9.881e-10
-0.069, -9.927e-10
-0.070, -9.982e-10
-0.071, -1.011e-9
-0.072, -1.021e-9
-0.073, -1.025e-9
-0.074, -1.028e-9
-0.075, -1.040e-9
-0.076, -1.051e-9
-0.077, -1.055e-9
-0.078, -1.057e-9
-0.079, -1.068e-9
-0.080, -1.078e-9
-0.081, -1.084e-9
-0.082, -1.086e-9
-0.083, -1.095e-9
-0.084, -1.107e-9
-0.085, -1.112e-9
-0.086, -1.115e-9
-0.087, -1.124e-9
-0.088, -1.137e-9
-0.089, -1.144e-9
-0.090, -1.145e-9
-0.091, -1.153e-9
-0.092, -1.166e-9
-0.093, -1.174e-9
-0.094, -1.177e-9
-0.095, -1.185e-9
-0.096, -1.197e-9
-0.097, -1.207e-9
-0.098, -1.211e-9
-0.099, -1.219e-9
-0.100, -1.230e-9
-0.101, -1.242e-9
-0.102, -1.249e-9
-0.103, -1.256e-9
-0.104, -1.264e-9
-0.105, -1.278e-9
-0.106, -1.285e-9
-0.107, -1.290e-9
-0.108, -1.298e-9
-0.109, -1.311e-9
-0.110, -1.320e-9
-0.111, -1.323e-9
-0.112, -1.328e-9
-0.113, -1.340e-9
-0.114, -1.353e-9
-0.115, -1.357e-9
-0.116, -1.361e-9
-0.117, -1.373e-9
-0.118, -1.387e-9
-0.119, -1.392e-9
-0.120, -1.398e-9
-0.121, -1.409e-9
-0.122, -1.422e-9
-0.123, -1.429e-9
-0.124, -1.434e-9
-0.125, -1.442e-9
-0.126, -1.457e-9
-0.127, -1.467e-9
-0.128, -1.471e-9
-0.129, -1.480e-9
-0.130, -1.495e-9
-0.131, -1.507e-9
-0.132, -1.513e-9
-0.133, -1.520e-9
-0.134, -1.533e-9
-0.135, -1.546e-9
-0.136, -1.552e-9
-0.137, -1.558e-9
-0.138, -1.569e-9
-0.139, -1.582e-9
-0.140, -1.589e-9
-0.141, -1.595e-9
-0.142, -1.605e-9
-0.143, -1.619e-9
-0.144, -1.627e-9
-0.145, -1.632e-9
-0.146, -1.642e-9
-0.147, -1.656e-9
-0.148, -1.666e-9
-0.149, -1.670e-9
-0.150, -1.677e-9
-0.151, -1.693e-9
-0.152, -1.705e-9
-0.153, -1.710e-9
-0.154, -1.717e-9
-0.155, -1.735e-9
-0.156, -1.748e-9
-0.157, -1.753e-9
-0.158, -1.762e-9
-0.159, -1.776e-9
-0.160, -1.788e-9
-0.161, -1.794e-9
-0.162, -1.801e-9
-0.163, -1.813e-9
-0.164, -1.826e-9
-0.165, -1.833e-9
-0.166, -1.840e-9
-0.167, -1.853e-9
-0.168, -1.867e-9
-0.169, -1.876e-9
-0.170, -1.884e-9
-0.171, -1.897e-9
-0.172, -1.909e-9
-0.173, -1.918e-9
-0.174, -1.926e-9
-0.175, -1.937e-9
-0.176, -1.949e-9
-0.177, -1.957e-9
-0.178, -1.965e-9
-0.179, -1.976e-9
-0.180, -1.991e-9
-0.181, -2.002e-9
-0.182, -2.009e-9
-0.183, -2.020e-9
-0.184, -2.033e-9
-0.185, -2.043e-9
-0.186, -2.049e-9
-0.187, -2.057e-9
-0.188, -2.074e-9
-0.189, -2.087e-9
-0.190, -2.093e-9
-0.191, -2.101e-9
-0.192, -2.116e-9
-0.193, -2.131e-9
-0.194, -2.139e-9
-0.195, -2.146e-9
-0.196, -2.160e-9
-0.197, -2.175e-9
-0.198, -2.184e-9
-0.199, -2.190e-9
-0.200, -2.203e-9
-0.201, -2.216e-9
-0.202, -2.225e-9
-0.203, -2.234e-9
-0.204, -2.247e-9
-0.205, -2.259e-9
-0.206, -2.270e-9
-0.207, -2.279e-9
-0.208, -2.291e-9
-0.209, -2.302e-9
-0.210, -2.311e-9
-0.211, -2.320e-9
-0.212, -2.333e-9
-0.213, -2.345e-9
-0.214, -2.355e-9
-0.215, -2.366e-9
-0.216, -2.378e-9
-0.217, -2.390e-9
-0.218, -2.397e-9
-0.219, -2.407e-9
-0.220, -2.419e-9
-0.221, -2.431e-9
-0.222, -2.441e-9
-0.223, -2.449e-9
-0.224, -2.460e-9
-0.225, -2.474e-9
-0.226, -2.485e-9
-0.227, -2.494e-9
-0.228, -2.507e-9
-0.229, -2.518e-9
-0.230, -2.528e-9
-0.231, -2.533e-9
-0.232, -2.542e-9
-0.233, -2.556e-9
-0.234, -2.569e-9
-0.235, -2.577e-9
-0.236, -2.588e-9
-0.237, -2.604e-9
-0.238, -2.617e-9
-0.239, -2.623e-9
-0.240, -2.633e-9
-0.241, -2.645e-9
-0.242, -2.657e-9
-0.243, -2.665e-9
-0.244, -2.676e-9
-0.245, -2.691e-9
-0.246, -2.705e-9
-0.247, -2.715e-9
-0.248, -2.724e-9
-0.249, -2.740e-9
-0.250, -2.751e-9
-0.251, -2.760e-9
-0.252, -2.770e-9
-0.253, -2.782e-9
-0.254, -2.795e-9
-0.255, -2.804e-9
-0.256, -2.814e-9
-0.257, -2.830e-9
-0.258, -2.844e-9
-0.259, -2.856e-9
-0.260, -2.865e-9
-0.261, -2.875e-9
-0.262, -2.886e-9
-0.263, -2.897e-9
-0.264, -2.907e-9
-0.265, -2.917e-9
-0.266, -2.930e-9
-0.267, -2.939e-9
-0.268, -2.949e-9
-0.269, -2.959e-9
-0.270, -2.975e-9
-0.271, -2.988e-9
-0.272, -2.995e-9
-0.273, -3.008e-9
-0.274, -3.021e-9
-0.275, -3.033e-9
-0.276, -3.044e-9
-0.277, -3.054e-9
-0.278, -3.069e-9
-0.279, -3.080e-9
-0.280, -3.092e-9
-0.281, -3.103e-9
-0.282, -3.115e-9
-0.283, -3.124e-9
-0.284, -3.132e-9
-0.285, -3.145e-9
-0.286, -3.164e-9
-0.287, -3.174e-9
-0.288, -3.183e-9
-0.289, -3.198e-9
-0.290, -3.214e-9
-0.291, -3.226e-9
-0.292, -3.234e-9
-0.293, -3.245e-9
-0.294, -3.258e-9
-0.295, -3.269e-9
-0.296, -3.280e-9
-0.297, -3.293e-9
-0.298, -3.307e-9
-0.299, -3.318e-9
-0.300, -3.331e-9
-0.301, -3.344e-9
-0.302, -3.356e-9
-0.303, -3.368e-9
-0.304, -3.380e-9
-0.305, -3.395e-9
-0.306, -3.407e-9
-0.307, -3.420e-9
-0.308, -3.434e-9
-0.309, -3.444e-9
-0.310, -3.459e-9
-0.311, -3.471e-9
-0.312, -3.479e-9
-0.313, -3.492e-9
-0.314, -3.504e-9
-0.315, -3.513e-9
-0.316, -3.522e-9
-0.317, -3.533e-9
-0.318, -3.547e-9
-0.319, -3.562e-9
-0.320, -3.573e-9
-0.321, -3.586e-9
-0.322, -3.602e-9
-0.323, -3.615e-9
-0.324, -3.626e-9
-0.325, -3.638e-9
-0.326, -3.655e-9
-0.327, -3.670e-9
-0.328, -3.681e-9
-0.329, -3.693e-9
-0.330, -3.710e-9
-0.331, -3.722e-9
-0.332, -3.734e-9
-0.333, -3.742e-9
-0.334, -3.757e-9
-0.335, -3.773e-9
-0.336, -3.786e-9
-0.337, -3.795e-9
-0.338, -3.808e-9
-0.339, -3.825e-9
-0.340, -3.838e-9
-0.341, -3.846e-9
-0.342, -3.856e-9
-0.343, -3.871e-9
-0.344, -3.888e-9
-0.345, -3.894e-9
-0.346, -3.904e-9
-0.347, -3.926e-9
-0.348, -3.943e-9
-0.349, -3.953e-9
-0.350, -3.962e-9
-0.351, -3.979e-9
-0.352, -3.996e-9
-0.353, -4.005e-9
-0.354, -4.015e-9
-0.355, -4.030e-9
-0.356, -4.050e-9
-0.357, -4.059e-9
-0.358, -4.070e-9
-0.359, -4.087e-9
-0.360, -4.107e-9
-0.361, -4.121e-9
-0.362, -4.132e-9
-0.363, -4.151e-9
-0.364, -4.172e-9
-0.365, -4.185e-9
-0.366, -4.192e-9
-0.367, -4.206e-9
-0.368, -4.228e-9
-0.369, -4.244e-9
-0.370, -4.255e-9
-0.371, -4.266e-9
-0.372, -4.284e-9
-0.373, -4.304e-9
-0.374, -4.314e-9
-0.375, -4.326e-9
-0.376, -4.349e-9
-0.377, -4.372e-9
-0.378, -4.382e-9
-0.379, -4.389e-9
-0.380, -4.410e-9
-0.381, -4.431e-9
-0.382, -4.441e-9
-0.383, -4.448e-9
-0.384, -4.465e-9
-0.385, -4.486e-9
-0.386, -4.498e-9
-0.387, -4.510e-9
-0.388, -4.528e-9
-0.389, -4.549e-9
-0.390, -4.565e-9
-0.391, -4.576e-9
-0.392, -4.590e-9
-0.393, -4.612e-9
-0.394, -4.632e-9
-0.395, -4.642e-9
-0.396, -4.655e-9
-0.397, -4.677e-9
-0.398, -4.697e-9
-0.399, -4.707e-9
-0.400, -4.717e-9
-0.401, -4.736e-9
-0.402, -4.751e-9
-0.403, -4.760e-9
-0.404, -4.770e-9
-0.405, -4.789e-9
-0.406, -4.810e-9
-0.407, -4.823e-9
-0.408, -4.835e-9
-0.409, -4.854e-9
-0.410, -4.873e-9
-0.411, -4.889e-9
-0.412, -4.897e-9
-0.413, -4.913e-9
-0.414, -4.932e-9
-0.415, -4.947e-9
-0.416, -4.959e-9
-0.417, -4.970e-9
-0.418, -4.984e-9
-0.419, -4.997e-9
-0.420, -5.006e-9
-0.421, -5.016e-9
-0.422, -5.034e-9
-0.423, -5.053e-9
-0.424, -5.065e-9
-0.425, -5.082e-9
-0.426, -5.106e-9
-0.427, -5.129e-9
-0.428, -5.135e-9
-0.429, -5.141e-9
-0.430, -5.164e-9
-0.431, -5.184e-9
-0.432, -5.199e-9
-0.433, -5.210e-9
-0.434, -5.225e-9
-0.435, -5.247e-9
-0.436, -5.254e-9
-0.437, -5.266e-9
-0.438, -5.288e-9
-0.439, -5.308e-9
-0.440, -5.322e-9
-0.441, -5.334e-9
-0.442, -5.344e-9
-0.443, -5.361e-9
-0.444, -5.379e-9
-0.445, -5.394e-9
-0.446, -5.407e-9
-0.447, -5.429e-9
-0.448, -5.445e-9
-0.449, -5.454e-9
-0.450, -5.469e-9
-0.451, -5.490e-9
-0.452, -5.505e-9
-0.453, -5.521e-9
-0.454, -5.534e-9
-0.455, -5.551e-9
-0.456, -5.565e-9
-0.457, -5.579e-9
-0.458, -5.598e-9
-0.459, -5.622e-9
-0.460, -5.635e-9
-0.461, -5.648e-9
-0.462, -5.666e-9
-0.463, -5.681e-9
-0.464, -5.693e-9
-0.465, -5.706e-9
-0.466, -5.713e-9
-0.467, -5.728e-9
-0.468, -5.749e-9
-0.469, -5.764e-9
-0.470, -5.776e-9
-0.471, -5.794e-9
-0.472, -5.802e-9
-0.473, -5.814e-9
-0.474, -5.824e-9
-0.475, -5.838e-9
-0.476, -5.857e-9
-0.477, -5.870e-9
-0.478, -5.881e-9
-0.479, -5.894e-9
-0.480, -5.914e-9
-0.481, -5.932e-9
-0.482, -5.941e-9
-0.483, -5.956e-9
-0.484, -5.981e-9
-0.485, -6.002e-9
-0.486, -6.015e-9
-0.487, -6.029e-9
-0.488, -6.045e-9
-0.489, -6.058e-9
-0.490, -6.070e-9
-0.491, -6.083e-9
-0.492, -6.102e-9
-0.493, -6.122e-9
-0.494, -6.138e-9
-0.495, -6.150e-9
-0.496, -6.163e-9
-0.497, -6.179e-9
-0.498, -6.190e-9
-0.499, -6.202e-9
