Mar. 6, 2025   16:05:19
Cyclic Voltammetry
File: cv surface (incubation) (1).bin
Data Source:  Experiment
Instrument Model:  CHI920C
Ref. Electrode: 
Header: 
Note: 

Init E (V) = -0.5
High E (V) = 0.5
Low E (V) = -0.5
Init P/N = P
Scan Rate (V/s) = 0.05
Segment = 2
Sample Interval (V) = 0.001
Quiet Time (sec) = 10
Sensitivity (A/V) = 1e-7

Results:

Channel 1:
Segment 1:

Segment 2:

Potential/V, Current/A

-0.500, -5.304e-9
-0.499, -5.246e-9
-0.498, -5.203e-9
-0.497, -5.167e-9
-0.496, -5.128e-9
-0.495, -5.090e-9
-0.494, -5.058e-9
-0.493, -5.028e-9
-0.492, -4.999e-9
-0.491, -4.968e-9
-0.490, -4.939e-9
-0.489, -4.910e-9
-0.488, -4.884e-9
-0.487, -4.855e-9
-0.486, -4.826e-9
-0.485, -4.800e-9
-0.484, -4.776e-9
-0.483, -4.750e-9
-0.482, -4.723e-9
-0.481, -4.699e-9
-0.480, -4.678e-9
-0.479, -4.651e-9
-0.478, -4.619e-9
-0.477, -4.593e-9
-0.476, -4.573e-9
-0.475, -4.548e-9
-0.474, -4.521e-9
-0.473, -4.498e-9
-0.472, -4.478e-9
-0.471, -4.458e-9
-0.470, -4.433e-9
-0.469, -4.407e-9
-0.468, -4.386e-9
-0.467, -4.365e-9
-0.466, -4.342e-9
-0.465, -4.320e-9
-0.464, -4.298e-9
-0.463, -4.278e-9
-0.462, -4.258e-9
-0.461, -4.235e-9
-0.460, -4.215e-9
-0.459, -4.198e-9
-0.458, -4.176e-9
-0.457, -4.151e-9
-0.456, -4.126e-9
-0.455, -4.105e-9
-0.454, -4.085e-9
-0.453, -4.062e-9
-0.452, -4.038e-9
-0.451, -4.020e-9
-0.450, -4.004e-9
-0.449, -3.986e-9
-0.448, -3.962e-9
-0.447, -3.940e-9
-0.446, -3.923e-9
-0.445, -3.905e-9
-0.444, -3.880e-9
-0.443, -3.858e-9
-0.442, -3.842e-9
-0.441, -3.825e-9
-0.440, -3.801e-9
-0.439, -3.779e-9
-0.438, -3.764e-9
-0.437, -3.750e-9
-0.436, -3.730e-9
-0.435, -3.709e-9
-0.434, -3.690e-9
-0.433, -3.673e-9
-0.432, -3.653e-9
-0.431, -3.629e-9
-0.430, -3.610e-9
-0.429, -3.592e-9
-0.428, -3.572e-9
-0.427, -3.552e-9
-0.426, -3.533e-9
-0.425, -3.518e-9
-0.424, -3.503e-9
-0.423, -3.487e-9
-0.422, -3.471e-9
-0.421, -3.454e-9
-0.420, -3.436e-9
-0.419, -3.417e-9
-0.418, -3.399e-9
-0.417, -3.380e-9
-0.416, -3.362e-9
-0.415, -3.345e-9
-0.414, -3.328e-9
-0.413, -3.309e-9
-0.412, -3.288e-9
-0.411, -3.271e-9
-0.410, -3.258e-9
-0.409, -3.240e-9
-0.408, -3.220e-9
-0.407, -3.202e-9
-0.406, -3.188e-9
-0.405, -3.170e-9
-0.404, -3.149e-9
-0.403, -3.131e-9
-0.402, -3.119e-9
-0.401, -3.104e-9
-0.400, -3.083e-9
-0.399, -3.063e-9
-0.398, -3.048e-9
-0.397, -3.036e-9
-0.396, -3.018e-9
-0.395, -2.998e-9
-0.394, -2.983e-9
-0.393, -2.972e-9
-0.392, -2.955e-9
-0.391, -2.932e-9
-0.390, -2.915e-9
-0.389, -2.903e-9
-0.388, -2.890e-9
-0.387, -2.869e-9
-0.386, -2.848e-9
-0.385, -2.836e-9
-0.384, -2.824e-9
-0.383, -2.805e-9
-0.382, -2.785e-9
-0.381, -2.772e-9
-0.380, -2.762e-9
-0.379, -2.746e-9
-0.378, -2.723e-9
-0.377, -2.708e-9
-0.376, -2.696e-9
-0.375, -2.681e-9
-0.374, -2.663e-9
-0.373, -2.645e-9
-0.372, -2.633e-9
-0.371, -2.622e-9
-0.370, -2.604e-9
-0.369, -2.585e-9
-0.368, -2.571e-9
-0.367, -2.562e-9
-0.366, -2.547e-9
-0.365, -2.530e-9
-0.364, -2.513e-9
-0.363, -2.500e-9
-0.362, -2.487e-9
-0.361, -2.468e-9
-0.360, -2.451e-9
-0.359, -2.437e-9
-0.358, -2.425e-9
-0.357, -2.411e-9
-0.356, -2.395e-9
-0.355, -2.381e-9
-0.354, -2.369e-9
-0.353, -2.354e-9
-0.352, -2.336e-9
-0.351, -2.320e-9
-0.350, -2.308e-9
-0.349, -2.296e-9
-0.348, -2.283e-9
-0.347, -2.268e-9
-0.346, -2.256e-9
-0.345, -2.243e-9
-0.344, -2.227e-9
-0.343, -2.210e-9
-0.342, -2.198e-9
-0.341, -2.185e-9
-0.340, -2.170e-9
-0.339, -2.156e-9
-0.338, -2.143e-9
-0.337, -2.131e-9
-0.336, -2.116e-9
-0.335, -2.101e-9
-0.334, -2.087e-9
-0.333, -2.075e-9
-0.332, -2.063e-9
-0.331, -2.047e-9
-0.330, -2.034e-9
-0.329, -2.025e-9
-0.328, -2.012e-9
-0.327, -1.996e-9
-0.326, -1.981e-9
-0.325, -1.970e-9
-0.324, -1.959e-9
-0.323, -1.944e-9
-0.322, -1.931e-9
-0.321, -1.919e-9
-0.320, -1.910e-9
-0.319, -1.895e-9
-0.318, -1.880e-9
-0.317, -1.869e-9
-0.316, -1.858e-9
-0.315, -1.842e-9
-0.314, -1.827e-9
-0.313, -1.814e-9
-0.312, -1.804e-9
-0.311, -1.794e-9
-0.310, -1.782e-9
-0.309, -1.768e-9
-0.308, -1.757e-9
-0.307, -1.744e-9
-0.306, -1.731e-9
-0.305, -1.715e-9
-0.304, -1.702e-9
-0.303, -1.693e-9
-0.302, -1.683e-9
-0.301, -1.669e-9
-0.300, -1.657e-9
-0.299, -1.648e-9
-0.298, -1.639e-9
-0.297, -1.627e-9
-0.296, -1.611e-9
-0.295, -1.600e-9
-0.294, -1.593e-9
-0.293, -1.583e-9
-0.292, -1.570e-9
-0.291, -1.556e-9
-0.290, -1.546e-9
-0.289, -1.540e-9
-0.288, -1.528e-9
-0.287, -1.511e-9
-0.286, -1.500e-9
-0.285, -1.493e-9
-0.284, -1.479e-9
-0.283, -1.462e-9
-0.282, -1.451e-9
-0.281, -1.445e-9
-0.280, -1.436e-9
-0.279, -1.420e-9
-0.278, -1.409e-9
-0.277, -1.403e-9
-0.276, -1.393e-9
-0.275, -1.379e-9
-0.274, -1.366e-9
-0.273, -1.357e-9
-0.272, -1.348e-9
-0.271, -1.336e-9
-0.270, -1.323e-9
-0.269, -1.315e-9
-0.268, -1.307e-9
-0.267, -1.298e-9
-0.266, -1.284e-9
-0.265, -1.274e-9
-0.264, -1.264e-9
-0.263, -1.252e-9
-0.262, -1.240e-9
-0.261, -1.228e-9
-0.260, -1.218e-9
-0.259, -1.209e-9
-0.258, -1.197e-9
-0.257, -1.187e-9
-0.256, -1.177e-9
-0.255, -1.166e-9
-0.254, -1.156e-9
-0.253, -1.145e-9
-0.252, -1.135e-9
-0.251, -1.125e-9
-0.250, -1.117e-9
-0.249, -1.108e-9
-0.248, -1.097e-9
-0.247, -1.086e-9
-0.246, -1.077e-9
-0.245, -1.070e-9
-0.244, -1.059e-9
-0.243, -1.048e-9
-0.242, -1.039e-9
-0.241, -1.032e-9
-0.240, -1.020e-9
-0.239, -1.005e-9
-0.238, -9.937e-10
-0.237, -9.884e-10
-0.236, -9.787e-10
-0.235, -9.626e-10
-0.234, -9.517e-10
-0.233, -9.488e-10
-0.232, -9.410e-10
-0.231, -9.275e-10
-0.230, -9.165e-10
-0.229, -9.121e-10
-0.228, -9.066e-10
-0.227, -8.939e-10
-0.226, -8.807e-10
-0.225, -8.750e-10
-0.224, -8.683e-10
-0.223, -8.572e-10
-0.222, -8.445e-10
-0.221, -8.397e-10
-0.220, -8.339e-10
-0.219, -8.258e-10
-0.218, -8.160e-10
-0.217, -8.087e-10
-0.216, -8.053e-10
-0.215, -7.974e-10
-0.214, -7.878e-10
-0.213, -7.805e-10
-0.212, -7.749e-10
-0.211, -7.658e-10
-0.210, -7.545e-10
-0.209, -7.473e-10
-0.208, -7.407e-10
-0.207, -7.318e-10
-0.206, -7.221e-10
-0.205, -7.129e-10
-0.204, -7.053e-10
-0.203, -6.968e-10
-0.202, -6.872e-10
-0.201, -6.777e-10
-0.200, -6.708e-10
-0.199, -6.623e-10
-0.198, -6.523e-10
-0.197, -6.425e-10
-0.196, -6.338e-10
-0.195, -6.267e-10
-0.194, -6.185e-10
-0.193, -6.081e-10
-0.192, -6.006e-10
-0.191, -5.950e-10
-0.190, -5.876e-10
-0.189, -5.787e-10
-0.188, -5.711e-10
-0.187, -5.661e-10
-0.186, -5.560e-10
-0.185, -5.446e-10
-0.184, -5.356e-10
-0.183, -5.313e-10
-0.182, -5.208e-10
-0.181, -5.063e-10
-0.180, -4.977e-10
-0.179, -4.928e-10
-0.178, -4.837e-10
-0.177, -4.706e-10
-0.176, -4.637e-10
-0.175, -4.605e-10
-0.174, -4.515e-10
-0.173, -4.389e-10
-0.172, -4.315e-10
-0.171, -4.295e-10
-0.170, -4.201e-10
-0.169, -4.056e-10
-0.168, -3.989e-10
-0.167, -3.964e-10
-0.166, -3.883e-10
-0.165, -3.754e-10
-0.164, -3.676e-10
-0.163, -3.656e-10
-0.162, -3.590e-10
-0.161, -3.472e-10
-0.160, -3.394e-10
-0.159, -3.371e-10
-0.158, -3.331e-10
-0.157, -3.217e-10
-0.156, -3.090e-10
-0.155, -3.054e-10
-0.154, -3.044e-10
-0.153, -2.945e-10
-0.152, -2.779e-10
-0.151, -2.698e-10
-0.150, -2.703e-10
-0.149, -2.629e-10
-0.148, -2.462e-10
-0.147, -2.363e-10
-0.146, -2.374e-10
-0.145, -2.312e-10
-0.144, -2.168e-10
-0.143, -2.067e-10
-0.142, -2.082e-10
-0.141, -2.062e-10
-0.140, -1.896e-10
-0.139, -1.772e-10
-0.138, -1.778e-10
-0.137, -1.773e-10
-0.136, -1.642e-10
-0.135, -1.507e-10
-0.134, -1.477e-10
-0.133, -1.463e-10
-0.132, -1.347e-10
-0.131, -1.228e-10
-0.130, -1.169e-10
-0.129, -1.155e-10
-0.128, -1.083e-10
-0.127, -9.793e-11
-0.126, -9.140e-11
-0.125, -8.964e-11
-0.124, -8.448e-11
-0.123, -7.541e-11
-0.122, -6.596e-11
-0.121, -6.206e-11
-0.120, -5.806e-11
-0.119, -4.831e-11
-0.118, -3.642e-11
-0.117, -2.940e-11
-0.116, -2.696e-11
-0.115, -2.102e-11
-0.114, -8.832e-12
-0.113, -3.509e-13
-0.112, 4.133e-12
-0.111, 8.520e-12
-0.110, 1.642e-11
-0.109, 2.538e-11
-0.108, 3.123e-11
-0.107, 3.572e-11
-0.106, 4.303e-11
-0.105, 5.219e-11
-0.104, 5.833e-11
-0.103, 6.223e-11
-0.102, 6.925e-11
-0.101, 7.539e-11
-0.100, 8.319e-11
-0.099, 8.816e-11
-0.098, 9.401e-11
-0.097, 9.996e-11
-0.096, 1.073e-10
-0.095, 1.165e-10
-0.094, 1.212e-10
-0.093, 1.219e-10
-0.092, 1.284e-10
-0.091, 1.395e-10
-0.090, 1.447e-10
-0.089, 1.447e-10
-0.088, 1.498e-10
-0.087, 1.598e-10
-0.086, 1.665e-10
-0.085, 1.673e-10
-0.084, 1.716e-10
-0.083, 1.837e-10
-0.082, 1.891e-10
-0.081, 1.906e-10
-0.080, 1.936e-10
-0.079, 2.047e-10
-0.078, 2.138e-10
-0.077, 2.158e-10
-0.076, 2.201e-10
-0.075, 2.280e-10
-0.074, 2.363e-10
-0.073, 2.407e-10
-0.072, 2.458e-10
-0.071, 2.532e-10
-0.070, 2.607e-10
-0.069, 2.651e-10
-0.068, 2.698e-10
-0.067, 2.753e-10
-0.066, 2.818e-10
-0.065, 2.880e-10
-0.064, 2.949e-10
-0.063, 2.985e-10
-0.062, 3.040e-10
-0.061, 3.116e-10
-0.060, 3.186e-10
-0.059, 3.216e-10
-0.058, 3.276e-10
-0.057, 3.343e-10
-0.056, 3.397e-10
-0.055, 3.431e-10
-0.054, 3.487e-10
-0.053, 3.573e-10
-0.052, 3.645e-10
-0.051, 3.680e-10
-0.050, 3.735e-10
-0.049, 3.831e-10
-0.048, 3.906e-10
-0.047, 3.931e-10
-0.046, 3.967e-10
-0.045, 4.055e-10
-0.044, 4.136e-10
-0.043, 4.147e-10
-0.042, 4.169e-10
-0.041, 4.220e-10
-0.040, 4.300e-10
-0.039, 4.340e-10
-0.038, 4.343e-10
-0.037, 4.413e-10
-0.036, 4.521e-10
-0.035, 4.567e-10
-0.034, 4.597e-10
-0.033, 4.672e-10
-0.032, 4.770e-10
-0.031, 4.855e-10
-0.030, 4.871e-10
-0.029, 4.911e-10
-0.028, 4.976e-10
-0.027, 5.056e-10
-0.026, 5.096e-10
-0.025, 5.123e-10
-0.024, 5.173e-10
-0.023, 5.259e-10
-0.022, 5.309e-10
-0.021, 5.308e-10
-0.020, 5.336e-10
-0.019, 5.417e-10
-0.018, 5.498e-10
-0.017, 5.518e-10
-0.016, 5.537e-10
-0.015, 5.608e-10
-0.014, 5.689e-10
-0.013, 5.706e-10
-0.012, 5.721e-10
-0.011, 5.791e-10
-0.010, 5.849e-10
-0.009, 5.886e-10
-0.008, 5.928e-10
-0.007, 5.972e-10
-0.006, 6.017e-10
-0.005, 6.078e-10
-0.004, 6.120e-10
-0.003, 6.143e-10
-0.002, 6.190e-10
-0.001, 6.249e-10
0.000, 6.290e-10
0.001, 6.328e-10
0.002, 6.375e-10
0.003, 6.426e-10
0.004, 6.473e-10
0.005, 6.510e-10
0.006, 6.549e-10
0.007, 6.603e-10
0.008, 6.623e-10
0.009, 6.654e-10
0.010, 6.695e-10
0.011, 6.757e-10
0.012, 6.814e-10
0.013, 6.827e-10
0.014, 6.865e-10
0.015, 6.923e-10
0.016, 6.963e-10
0.017, 6.994e-10
0.018, 7.045e-10
0.019, 7.121e-10
0.020, 7.157e-10
0.021, 7.177e-10
0.022, 7.223e-10
0.023, 7.273e-10
0.024, 7.313e-10
0.025, 7.333e-10
0.026, 7.376e-10
0.027, 7.409e-10
0.028, 7.431e-10
0.029, 7.474e-10
0.030, 7.538e-10
0.031, 7.583e-10
0.032, 7.604e-10
0.033, 7.633e-10
0.034, 7.685e-10
0.035, 7.737e-10
0.036, 7.765e-10
0.037, 7.787e-10
0.038, 7.858e-10
0.039, 7.897e-10
0.040, 7.906e-10
0.041, 7.927e-10
0.042, 8.002e-10
0.043, 8.083e-10
0.044, 8.075e-10
0.045, 8.069e-10
0.046, 8.148e-10
0.047, 8.224e-10
0.048, 8.228e-10
0.049, 8.227e-10
0.050, 8.280e-10
0.051, 8.378e-10
0.052, 8.399e-10
0.053, 8.399e-10
0.054, 8.428e-10
0.055, 8.499e-10
0.056, 8.560e-10
0.057, 8.539e-10
0.058, 8.541e-10
0.059, 8.603e-10
0.060, 8.683e-10
0.061, 8.710e-10
0.062, 8.720e-10
0.063, 8.762e-10
0.064, 8.794e-10
0.065, 8.828e-10
0.066, 8.842e-10
0.067, 8.878e-10
0.068, 8.944e-10
0.069, 8.974e-10
0.070, 8.964e-10
0.071, 8.987e-10
0.072, 9.059e-10
0.073, 9.120e-10
0.074, 9.129e-10
0.075, 9.140e-10
0.076, 9.172e-10
0.077, 9.240e-10
0.078, 9.296e-10
0.079, 9.325e-10
0.080, 9.342e-10
0.081, 9.406e-10
0.082, 9.443e-10
0.083, 9.453e-10
0.084, 9.480e-10
0.085, 9.542e-10
0.086, 9.602e-10
0.087, 9.636e-10
0.088, 9.632e-10
0.089, 9.667e-10
0.090, 9.729e-10
0.091, 9.748e-10
0.092, 9.770e-10
0.093, 9.812e-10
0.094, 9.871e-10
0.095, 9.912e-10
0.096, 9.929e-10
0.097, 9.951e-10
0.098, 1.001e-9
0.099, 1.007e-9
0.100, 1.010e-9
0.101, 1.012e-9
0.102, 1.015e-9
0.103, 1.023e-9
0.104, 1.025e-9
0.105, 1.025e-9
0.106, 1.030e-9
0.107, 1.034e-9
0.108, 1.040e-9
0.109, 1.041e-9
0.110, 1.043e-9
0.111, 1.049e-9
0.112, 1.056e-9
0.113, 1.060e-9
0.114, 1.059e-9
0.115, 1.065e-9
0.116, 1.070e-9
0.117, 1.070e-9
0.118, 1.071e-9
0.119, 1.075e-9
0.120, 1.083e-9
0.121, 1.085e-9
0.122, 1.088e-9
0.123, 1.093e-9
0.124, 1.099e-9
0.125, 1.102e-9
0.126, 1.102e-9
0.127, 1.105e-9
0.128, 1.114e-9
0.129, 1.116e-9
0.130, 1.118e-9
0.131, 1.119e-9
0.132, 1.124e-9
0.133, 1.128e-9
0.134, 1.133e-9
0.135, 1.138e-9
0.136, 1.143e-9
0.137, 1.147e-9
0.138, 1.146e-9
0.139, 1.146e-9
0.140, 1.155e-9
0.141, 1.162e-9
0.142, 1.167e-9
0.143, 1.166e-9
0.144, 1.169e-9
0.145, 1.178e-9
0.146, 1.182e-9
0.147, 1.182e-9
0.148, 1.186e-9
0.149, 1.195e-9
0.150, 1.196e-9
0.151, 1.193e-9
0.152, 1.197e-9
0.153, 1.205e-9
0.154, 1.210e-9
0.155, 1.209e-9
0.156, 1.210e-9
0.157, 1.218e-9
0.158, 1.222e-9
0.159, 1.220e-9
0.160, 1.222e-9
0.161, 1.228e-9
0.162, 1.234e-9
0.163, 1.236e-9
0.164, 1.242e-9
0.165, 1.252e-9
0.166, 1.259e-9
0.167, 1.259e-9
0.168, 1.264e-9
0.169, 1.275e-9
0.170, 1.283e-9
0.171, 1.284e-9
0.172, 1.282e-9
0.173, 1.284e-9
0.174, 1.288e-9
0.175, 1.289e-9
0.176, 1.290e-9
0.177, 1.295e-9
0.178, 1.304e-9
0.179, 1.304e-9
0.180, 1.304e-9
0.181, 1.310e-9
0.182, 1.319e-9
0.183, 1.324e-9
0.184, 1.326e-9
0.185, 1.331e-9
0.186, 1.340e-9
0.187, 1.346e-9
0.188, 1.350e-9
0.189, 1.353e-9
0.190, 1.361e-9
0.191, 1.370e-9
0.192, 1.371e-9
0.193, 1.374e-9
0.194, 1.382e-9
0.195, 1.388e-9
0.196, 1.390e-9
0.197, 1.392e-9
0.198, 1.400e-9
0.199, 1.408e-9
0.200, 1.409e-9
0.201, 1.414e-9
0.202, 1.421e-9
0.203, 1.427e-9
0.204, 1.431e-9
0.205, 1.432e-9
0.206, 1.443e-9
0.207, 1.450e-9
0.208, 1.453e-9
0.209, 1.457e-9
0.210, 1.463e-9
0.211, 1.470e-9
0.212, 1.473e-9
0.213, 1.476e-9
0.214, 1.482e-9
0.215, 1.490e-9
0.216, 1.494e-9
0.217, 1.495e-9
0.218, 1.499e-9
0.219, 1.509e-9
0.220, 1.515e-9
0.221, 1.517e-9
0.222, 1.522e-9
0.223, 1.533e-9
0.224, 1.541e-9
0.225, 1.541e-9
0.226, 1.542e-9
0.227, 1.554e-9
0.228, 1.563e-9
0.229, 1.563e-9
0.230, 1.564e-9
0.231, 1.577e-9
0.232, 1.596e-9
0.233, 1.599e-9
0.234, 1.596e-9
0.235, 1.599e-9
0.236, 1.611e-9
0.237, 1.618e-9
0.238, 1.619e-9
0.239, 1.622e-9
0.240, 1.631e-9
0.241, 1.638e-9
0.242, 1.638e-9
0.243, 1.641e-9
0.244, 1.651e-9
0.245, 1.663e-9
0.246, 1.665e-9
0.247, 1.666e-9
0.248, 1.674e-9
0.249, 1.687e-9
0.250, 1.690e-9
0.251, 1.689e-9
0.252, 1.695e-9
0.253, 1.707e-9
0.254, 1.713e-9
0.255, 1.713e-9
0.256, 1.719e-9
0.257, 1.731e-9
0.258, 1.736e-9
0.259, 1.734e-9
0.260, 1.738e-9
0.261, 1.748e-9
0.262, 1.756e-9
0.263, 1.759e-9
0.264, 1.763e-9
0.265, 1.770e-9
0.266, 1.776e-9
0.267, 1.777e-9
0.268, 1.779e-9
0.269, 1.788e-9
0.270, 1.799e-9
0.271, 1.801e-9
0.272, 1.802e-9
0.273, 1.808e-9
0.274, 1.817e-9
0.275, 1.823e-9
0.276, 1.827e-9
0.277, 1.833e-9
0.278, 1.842e-9
0.279, 1.846e-9
0.280, 1.852e-9
0.281, 1.857e-9
0.282, 1.865e-9
0.283, 1.871e-9
0.284, 1.877e-9
0.285, 1.881e-9
0.286, 1.887e-9
0.287, 1.892e-9
0.288, 1.897e-9
0.289, 1.901e-9
0.290, 1.907e-9
0.291, 1.910e-9
0.292, 1.917e-9
0.293, 1.922e-9
0.294, 1.928e-9
0.295, 1.935e-9
0.296, 1.943e-9
0.297, 1.950e-9
0.298, 1.956e-9
0.299, 1.959e-9
0.300, 1.961e-9
0.301, 1.966e-9
0.302, 1.978e-9
0.303, 1.986e-9
0.304, 1.987e-9
0.305, 1.989e-9
0.306, 1.997e-9
0.307, 2.003e-9
0.308, 2.004e-9
0.309, 2.005e-9
0.310, 2.017e-9
0.311, 2.023e-9
0.312, 2.023e-9
0.313, 2.028e-9
0.314, 2.038e-9
0.315, 2.045e-9
0.316, 2.047e-9
0.317, 2.049e-9
0.318, 2.059e-9
0.319, 2.065e-9
0.320, 2.068e-9
0.321, 2.073e-9
0.322, 2.079e-9
0.323, 2.085e-9
0.324, 2.090e-9
0.325, 2.090e-9
0.326, 2.092e-9
0.327, 2.099e-9
0.328, 2.105e-9
0.329, 2.109e-9
0.330, 2.112e-9
0.331, 2.113e-9
0.332, 2.118e-9
0.333, 2.125e-9
0.334, 2.126e-9
0.335, 2.133e-9
0.336, 2.144e-9
0.337, 2.153e-9
0.338, 2.158e-9
0.339, 2.163e-9
0.340, 2.168e-9
0.341, 2.175e-9
0.342, 2.177e-9
0.343, 2.179e-9
0.344, 2.188e-9
0.345, 2.198e-9
0.346, 2.199e-9
0.347, 2.204e-9
0.348, 2.210e-9
0.349, 2.214e-9
0.350, 2.218e-9
0.351, 2.221e-9
0.352, 2.227e-9
0.353, 2.235e-9
0.354, 2.242e-9
0.355, 2.241e-9
0.356, 2.244e-9
0.357, 2.259e-9
0.358, 2.270e-9
0.359, 2.277e-9
0.360, 2.279e-9
0.361, 2.280e-9
0.362, 2.288e-9
0.363, 2.293e-9
0.364, 2.294e-9
0.365, 2.300e-9
0.366, 2.314e-9
0.367, 2.323e-9
0.368, 2.326e-9
0.369, 2.330e-9
0.370, 2.334e-9
0.371, 2.341e-9
0.372, 2.343e-9
0.373, 2.346e-9
0.374, 2.356e-9
0.375, 2.361e-9
0.376, 2.362e-9
0.377, 2.372e-9
0.378, 2.380e-9
0.379, 2.388e-9
0.380, 2.390e-9
0.381, 2.389e-9
0.382, 2.396e-9
0.383, 2.406e-9
0.384, 2.407e-9
0.385, 2.413e-9
0.386, 2.421e-9
0.387, 2.425e-9
0.388, 2.426e-9
0.389, 2.432e-9
0.390, 2.438e-9
0.391, 2.441e-9
0.392, 2.448e-9
0.393, 2.456e-9
0.394, 2.460e-9
0.395, 2.463e-9
0.396, 2.471e-9
0.397, 2.473e-9
0.398, 2.476e-9
0.399, 2.485e-9
0.400, 2.489e-9
0.401, 2.494e-9
0.402, 2.499e-9
0.403, 2.506e-9
0.404, 2.516e-9
0.405, 2.524e-9
0.406, 2.525e-9
0.407, 2.529e-9
0.408, 2.535e-9
0.409, 2.537e-9
0.410, 2.536e-9
0.411, 2.543e-9
0.412, 2.551e-9
0.413, 2.554e-9
0.414, 2.559e-9
0.415, 2.566e-9
0.416, 2.575e-9
0.417, 2.583e-9
0.418, 2.585e-9
0.419, 2.587e-9
0.420, 2.595e-9
0.421, 2.602e-9
0.422, 2.606e-9
0.423, 2.611e-9
0.424, 2.616e-9
0.425, 2.618e-9
0.426, 2.625e-9
0.427, 2.631e-9
0.428, 2.632e-9
0.429, 2.638e-9
0.430, 2.644e-9
0.431, 2.647e-9
0.432, 2.652e-9
0.433, 2.656e-9
0.434, 2.665e-9
0.435, 2.669e-9
0.436, 2.676e-9
0.437, 2.685e-9
0.438, 2.692e-9
0.439, 2.698e-9
0.440, 2.704e-9
0.441, 2.708e-9
0.442, 2.712e-9
0.443, 2.717e-9
0.444, 2.725e-9
0.445, 2.728e-9
0.446, 2.732e-9
0.447, 2.737e-9
0.448, 2.745e-9
0.449, 2.753e-9
0.450, 2.755e-9
0.451, 2.757e-9
0.452, 2.765e-9
0.453, 2.774e-9
0.454, 2.779e-9
0.455, 2.780e-9
0.456, 2.785e-9
0.457, 2.793e-9
0.458, 2.800e-9
0.459, 2.803e-9
0.460, 2.808e-9
0.461, 2.813e-9
0.462, 2.816e-9
0.463, 2.818e-9
0.464, 2.820e-9
0.465, 2.829e-9
0.466, 2.833e-9
0.467, 2.838e-9
0.468, 2.840e-9
0.469, 2.846e-9
0.470, 2.850e-9
0.471, 2.857e-9
0.472, 2.863e-9
0.473, 2.867e-9
0.474, 2.872e-9
0.475, 2.878e-9
0.476, 2.888e-9
0.477, 2.891e-9
0.478, 2.893e-9
0.479, 2.895e-9
0.480, 2.903e-9
0.481, 2.907e-9
0.482, 2.911e-9
0.483, 2.918e-9
0.484, 2.923e-9
0.485, 2.925e-9
0.486, 2.927e-9
0.487, 2.933e-9
0.488, 2.935e-9
0.489, 2.937e-9
0.490, 2.940e-9
0.491, 2.947e-9
0.492, 2.949e-9
0.493, 2.954e-9
0.494, 2.960e-9
0.495, 2.970e-9
0.496, 2.974e-9
0.497, 2.977e-9
0.498, 2.984e-9
0.499, 2.990e-9
0.500, 2.971e-9
0.499, 2.888e-9
0.498, 2.823e-9
0.497, 2.779e-9
0.496, 2.740e-9
0.495, 2.699e-9
0.494, 2.656e-9
0.493, 2.621e-9
0.492, 2.597e-9
0.491, 2.568e-9
0.490, 2.535e-9
0.489, 2.503e-9
0.488, 2.473e-9
0.487, 2.449e-9
0.486, 2.425e-9
0.485, 2.401e-9
0.484, 2.378e-9
0.483, 2.356e-9
0.482, 2.333e-9
0.481, 2.311e-9
0.480, 2.289e-9
0.479, 2.269e-9
0.478, 2.247e-9
0.477, 2.226e-9
0.476, 2.206e-9
0.475, 2.189e-9
0.474, 2.167e-9
0.473, 2.148e-9
0.472, 2.127e-9
0.471, 2.109e-9
0.470, 2.091e-9
0.469, 2.079e-9
0.468, 2.064e-9
0.467, 2.046e-9
0.466, 2.030e-9
0.465, 2.016e-9
0.464, 2.000e-9
0.463, 1.982e-9
0.462, 1.965e-9
0.461, 1.952e-9
0.460, 1.936e-9
0.459, 1.917e-9
0.458, 1.898e-9
0.457, 1.886e-9
0.456, 1.875e-9
0.455, 1.860e-9
0.454, 1.842e-9
0.453, 1.828e-9
0.452, 1.817e-9
0.451, 1.802e-9
0.450, 1.784e-9
0.449, 1.768e-9
0.448, 1.757e-9
0.447, 1.746e-9
0.446, 1.732e-9
0.445, 1.717e-9
0.444, 1.708e-9
0.443, 1.696e-9
0.442, 1.677e-9
0.441, 1.657e-9
0.440, 1.646e-9
0.439, 1.636e-9
0.438, 1.621e-9
0.437, 1.604e-9
0.436, 1.594e-9
0.435, 1.590e-9
0.434, 1.578e-9
0.433, 1.562e-9
0.432, 1.551e-9
0.431, 1.543e-9
0.430, 1.531e-9
0.429, 1.515e-9
0.428, 1.502e-9
0.427, 1.495e-9
0.426, 1.486e-9
0.425, 1.472e-9
0.424, 1.458e-9
0.423, 1.448e-9
0.422, 1.441e-9
0.421, 1.428e-9
0.420, 1.411e-9
0.419, 1.401e-9
0.418, 1.394e-9
0.417, 1.382e-9
0.416, 1.368e-9
0.415, 1.357e-9
0.414, 1.350e-9
0.413, 1.339e-9
0.412, 1.323e-9
0.411, 1.309e-9
0.410, 1.303e-9
0.409, 1.295e-9
0.408, 1.281e-9
0.407, 1.271e-9
0.406, 1.263e-9
0.405, 1.255e-9
0.404, 1.243e-9
0.403, 1.233e-9
0.402, 1.226e-9
0.401, 1.217e-9
0.400, 1.204e-9
0.399, 1.190e-9
0.398, 1.183e-9
0.397, 1.174e-9
0.396, 1.162e-9
0.395, 1.149e-9
0.394, 1.141e-9
0.393, 1.135e-9
0.392, 1.127e-9
0.391, 1.118e-9
0.390, 1.108e-9
0.389, 1.102e-9
0.388, 1.093e-9
0.387, 1.082e-9
0.386, 1.072e-9
0.385, 1.067e-9
0.384, 1.057e-9
0.383, 1.046e-9
0.382, 1.037e-9
0.381, 1.030e-9
0.380, 1.021e-9
0.379, 1.010e-9
0.378, 9.988e-10
0.377, 9.922e-10
0.376, 9.863e-10
0.375, 9.779e-10
0.374, 9.668e-10
0.373, 9.588e-10
0.372, 9.520e-10
0.371, 9.433e-10
0.370, 9.313e-10
0.369, 9.220e-10
0.368, 9.161e-10
0.367, 9.076e-10
0.366, 8.972e-10
0.365, 8.880e-10
0.364, 8.826e-10
0.363, 8.750e-10
0.362, 8.648e-10
0.361, 8.554e-10
0.360, 8.497e-10
0.359, 8.451e-10
0.358, 8.361e-10
0.357, 8.263e-10
0.356, 8.198e-10
0.355, 8.121e-10
0.354, 8.023e-10
0.353, 7.951e-10
0.352, 7.895e-10
0.351, 7.815e-10
0.350, 7.737e-10
0.349, 7.655e-10
0.348, 7.583e-10
0.347, 7.540e-10
0.346, 7.465e-10
0.345, 7.396e-10
0.344, 7.315e-10
0.343, 7.237e-10
0.342, 7.174e-10
0.341, 7.093e-10
0.340, 6.992e-10
0.339, 6.901e-10
0.338, 6.832e-10
0.337, 6.758e-10
0.336, 6.685e-10
0.335, 6.616e-10
0.334, 6.557e-10
0.333, 6.492e-10
0.332, 6.438e-10
0.331, 6.365e-10
0.330, 6.292e-10
0.329, 6.220e-10
0.328, 6.174e-10
0.327, 6.091e-10
0.326, 6.011e-10
0.325, 5.935e-10
0.324, 5.903e-10
0.323, 5.852e-10
0.322, 5.760e-10
0.321, 5.669e-10
0.320, 5.629e-10
0.319, 5.580e-10
0.318, 5.494e-10
0.317, 5.395e-10
0.316, 5.342e-10
0.315, 5.313e-10
0.314, 5.253e-10
0.313, 5.144e-10
0.312, 5.091e-10
0.311, 5.057e-10
0.310, 4.992e-10
0.309, 4.879e-10
0.308, 4.805e-10
0.307, 4.734e-10
0.306, 4.689e-10
0.305, 4.582e-10
0.304, 4.485e-10
0.303, 4.439e-10
0.302, 4.394e-10
0.301, 4.303e-10
0.300, 4.229e-10
0.299, 4.175e-10
0.298, 4.132e-10
0.297, 4.073e-10
0.296, 4.008e-10
0.295, 3.959e-10
0.294, 3.926e-10
0.293, 3.873e-10
0.292, 3.806e-10
0.291, 3.748e-10
0.290, 3.696e-10
0.289, 3.657e-10
0.288, 3.597e-10
0.287, 3.529e-10
0.286, 3.458e-10
0.285, 3.423e-10
0.284, 3.379e-10
0.283, 3.301e-10
0.282, 3.222e-10
0.281, 3.189e-10
0.280, 3.167e-10
0.279, 3.090e-10
0.278, 3.013e-10
0.277, 2.970e-10
0.276, 2.943e-10
0.275, 2.897e-10
0.274, 2.811e-10
0.273, 2.763e-10
0.272, 2.727e-10
0.271, 2.678e-10
0.270, 2.615e-10
0.269, 2.545e-10
0.268, 2.506e-10
0.267, 2.466e-10
0.266, 2.402e-10
0.265, 2.318e-10
0.264, 2.274e-10
0.263, 2.222e-10
0.262, 2.167e-10
0.261, 2.102e-10
0.260, 2.028e-10
0.259, 1.996e-10
0.258, 1.966e-10
0.257, 1.904e-10
0.256, 1.835e-10
0.255, 1.789e-10
0.254, 1.773e-10
0.253, 1.725e-10
0.252, 1.650e-10
0.251, 1.592e-10
0.250, 1.580e-10
0.249, 1.543e-10
0.248, 1.448e-10
0.247, 1.383e-10
0.246, 1.390e-10
0.245, 1.367e-10
0.244, 1.277e-10
0.243, 1.206e-10
0.242, 1.214e-10
0.241, 1.186e-10
0.240, 1.097e-10
0.239, 1.012e-10
0.238, 1.013e-10
0.237, 9.967e-11
0.236, 9.196e-11
0.235, 8.153e-11
0.234, 7.841e-11
0.233, 7.939e-11
0.232, 7.266e-11
0.231, 6.467e-11
0.230, 5.960e-11
0.229, 5.843e-11
0.228, 5.570e-11
0.227, 4.771e-11
0.226, 4.196e-11
0.225, 4.166e-11
0.224, 4.069e-11
0.223, 3.231e-11
0.222, 2.295e-11
0.221, 2.002e-11
0.220, 1.954e-11
0.219, 1.417e-11
0.218, 5.303e-12
0.217, 5.264e-13
0.216, -5.459e-13
0.215, -6.102e-12
0.214, -1.536e-11
0.213, -2.024e-11
0.212, -2.111e-11
0.211, -2.589e-11
0.210, -3.515e-11
0.209, -4.120e-11
0.208, -4.178e-11
0.207, -4.548e-11
0.206, -5.192e-11
0.205, -5.640e-11
0.204, -5.884e-11
0.203, -6.362e-11
0.202, -6.908e-11
0.201, -7.424e-11
0.200, -7.756e-11
0.199, -8.126e-11
0.198, -8.535e-11
0.197, -8.955e-11
0.196, -9.491e-11
0.195, -9.988e-11
0.194, -1.031e-10
0.193, -1.048e-10
0.192, -1.094e-10
0.191, -1.163e-10
0.190, -1.189e-10
0.189, -1.204e-10
0.188, -1.251e-10
0.187, -1.320e-10
0.186, -1.359e-10
0.185, -1.385e-10
0.184, -1.436e-10
0.183, -1.508e-10
0.182, -1.558e-10
0.181, -1.553e-10
0.180, -1.592e-10
0.179, -1.651e-10
0.178, -1.724e-10
0.177, -1.730e-10
0.176, -1.739e-10
0.175, -1.789e-10
0.174, -1.862e-10
0.173, -1.899e-10
0.172, -1.924e-10
0.171, -1.957e-10
0.170, -2.018e-10
0.169, -2.057e-10
0.168, -2.072e-10
0.167, -2.095e-10
0.166, -2.168e-10
0.165, -2.218e-10
0.164, -2.237e-10
0.163, -2.264e-10
0.162, -2.319e-10
0.161, -2.389e-10
0.160, -2.405e-10
0.159, -2.433e-10
0.158, -2.506e-10
0.157, -2.598e-10
0.156, -2.629e-10
0.155, -2.638e-10
0.154, -2.703e-10
0.153, -2.777e-10
0.152, -2.789e-10
0.151, -2.795e-10
0.150, -2.866e-10
0.149, -2.946e-10
0.148, -2.965e-10
0.147, -2.960e-10
0.146, -3.027e-10
0.145, -3.103e-10
0.144, -3.111e-10
0.143, -3.113e-10
0.142, -3.175e-10
0.141, -3.247e-10
0.140, -3.270e-10
0.139, -3.283e-10
0.138, -3.325e-10
0.137, -3.375e-10
0.136, -3.417e-10
0.135, -3.444e-10
0.134, -3.471e-10
0.133, -3.507e-10
0.132, -3.554e-10
0.131, -3.599e-10
0.130, -3.610e-10
0.129, -3.639e-10
0.128, -3.698e-10
0.127, -3.762e-10
0.126, -3.790e-10
0.125, -3.791e-10
0.124, -3.838e-10
0.123, -3.930e-10
0.122, -3.965e-10
0.121, -3.950e-10
0.120, -3.985e-10
0.119, -4.070e-10
0.118, -4.117e-10
0.117, -4.109e-10
0.116, -4.129e-10
0.115, -4.204e-10
0.114, -4.284e-10
0.113, -4.301e-10
0.112, -4.323e-10
0.111, -4.370e-10
0.110, -4.436e-10
0.109, -4.470e-10
0.108, -4.475e-10
0.107, -4.488e-10
0.106, -4.542e-10
0.105, -4.597e-10
0.104, -4.610e-10
0.103, -4.639e-10
0.102, -4.716e-10
0.101, -4.765e-10
0.100, -4.799e-10
0.099, -4.821e-10
0.098, -4.864e-10
0.097, -4.942e-10
0.096, -5.023e-10
0.095, -5.036e-10
0.094, -5.059e-10
0.093, -5.121e-10
0.092, -5.179e-10
0.091, -5.216e-10
0.090, -5.231e-10
0.089, -5.271e-10
0.088, -5.354e-10
0.087, -5.405e-10
0.086, -5.427e-10
0.085, -5.474e-10
0.084, -5.537e-10
0.083, -5.578e-10
0.082, -5.605e-10
0.081, -5.634e-10
0.080, -5.651e-10
0.079, -5.714e-10
0.078, -5.772e-10
0.077, -5.801e-10
0.076, -5.813e-10
0.075, -5.857e-10
0.074, -5.937e-10
0.073, -5.973e-10
0.072, -5.963e-10
0.071, -6.003e-10
0.070, -6.084e-10
0.069, -6.118e-10
0.068, -6.123e-10
0.067, -6.152e-10
0.066, -6.244e-10
0.065, -6.316e-10
0.064, -6.313e-10
0.063, -6.327e-10
0.062, -6.405e-10
0.061, -6.487e-10
0.060, -6.489e-10
0.059, -6.509e-10
0.058, -6.564e-10
0.057, -6.644e-10
0.056, -6.685e-10
0.055, -6.686e-10
0.054, -6.744e-10
0.053, -6.834e-10
0.052, -6.886e-10
0.051, -6.864e-10
0.050, -6.902e-10
0.049, -6.994e-10
0.048, -7.047e-10
0.047, -7.043e-10
0.046, -7.067e-10
0.045, -7.150e-10
0.044, -7.233e-10
0.043, -7.252e-10
0.042, -7.271e-10
0.041, -7.342e-10
0.040, -7.436e-10
0.039, -7.481e-10
0.038, -7.494e-10
0.037, -7.552e-10
0.036, -7.639e-10
0.035, -7.706e-10
0.034, -7.736e-10
0.033, -7.773e-10
0.032, -7.846e-10
0.031, -7.913e-10
0.030, -7.940e-10
0.029, -7.958e-10
0.028, -8.023e-10
0.027, -8.089e-10
0.026, -8.137e-10
0.025, -8.165e-10
0.024, -8.222e-10
0.023, -8.270e-10
0.022, -8.329e-10
0.021, -8.380e-10
0.020, -8.430e-10
0.019, -8.488e-10
0.018, -8.529e-10
0.017, -8.586e-10
0.016, -8.643e-10
0.015, -8.684e-10
0.014, -8.726e-10
0.013, -8.795e-10
0.012, -8.899e-10
0.011, -8.939e-10
0.010, -8.951e-10
0.009, -9.027e-10
0.008, -9.121e-10
0.007, -9.158e-10
0.006, -9.178e-10
0.005, -9.248e-10
0.004, -9.336e-10
0.003, -9.388e-10
0.002, -9.403e-10
0.001, -9.463e-10
-0.000, -9.556e-10
-0.001, -9.645e-10
-0.002, -9.684e-10
-0.003, -9.722e-10
-0.004, -9.814e-10
-0.005, -9.902e-10
-0.006, -9.959e-10
-0.007, -1.001e-9
-0.008, -1.011e-9
-0.009, -1.022e-9
-0.010, -1.028e-9
-0.011, -1.030e-9
-0.012, -1.037e-9
-0.013, -1.047e-9
-0.014, -1.055e-9
-0.015, -1.056e-9
-0.016, -1.061e-9
-0.017, -1.070e-9
-0.018, -1.079e-9
-0.019, -1.083e-9
-0.020, -1.087e-9
-0.021, -1.096e-9
-0.022, -1.108e-9
-0.023, -1.112e-9
-0.024, -1.114e-9
-0.025, -1.123e-9
-0.026, -1.134e-9
-0.027, -1.139e-9
-0.028, -1.143e-9
-0.029, -1.152e-9
-0.030, -1.164e-9
-0.031, -1.168e-9
-0.032, -1.174e-9
-0.033, -1.184e-9
-0.034, -1.192e-9
-0.035, -1.198e-9
-0.036, -1.201e-9
-0.037, -1.210e-9
-0.038, -1.222e-9
-0.039, -1.228e-9
-0.040, -1.234e-9
-0.041, -1.244e-9
-0.042, -1.256e-9
-0.043, -1.264e-9
-0.044, -1.269e-9
-0.045, -1.279e-9
-0.046, -1.291e-9
-0.047, -1.297e-9
-0.048, -1.302e-9
-0.049, -1.309e-9
-0.050, -1.318e-9
-0.051, -1.325e-9
-0.052, -1.331e-9
-0.053, -1.340e-9
-0.054, -1.351e-9
-0.055, -1.357e-9
-0.056, -1.365e-9
-0.057, -1.374e-9
-0.058, -1.385e-9
-0.059, -1.393e-9
-0.060, -1.399e-9
-0.061, -1.408e-9
-0.062, -1.419e-9
-0.063, -1.427e-9
-0.064, -1.434e-9
-0.065, -1.444e-9
-0.066, -1.455e-9
-0.067, -1.463e-9
-0.068, -1.468e-9
-0.069, -1.479e-9
-0.070, -1.493e-9
-0.071, -1.503e-9
-0.072, -1.509e-9
-0.073, -1.520e-9
-0.074, -1.531e-9
-0.075, -1.540e-9
-0.076, -1.547e-9
-0.077, -1.554e-9
-0.078, -1.567e-9
-0.079, -1.575e-9
-0.080, -1.583e-9
-0.081, -1.592e-9
-0.082, -1.603e-9
-0.083, -1.616e-9
-0.084, -1.623e-9
-0.085, -1.629e-9
-0.086, -1.640e-9
-0.087, -1.652e-9
-0.088, -1.659e-9
-0.089, -1.665e-9
-0.090, -1.674e-9
-0.091, -1.686e-9
-0.092, -1.695e-9
-0.093, -1.702e-9
-0.094, -1.712e-9
-0.095, -1.725e-9
-0.096, -1.739e-9
-0.097, -1.747e-9
-0.098, -1.758e-9
-0.099, -1.770e-9
-0.100, -1.781e-9
-0.101, -1.789e-9
-0.102, -1.799e-9
-0.103, -1.812e-9
-0.104, -1.824e-9
-0.105, -1.833e-9
-0.106, -1.841e-9
-0.107, -1.854e-9
-0.108, -1.865e-9
-0.109, -1.875e-9
-0.110, -1.884e-9
-0.111, -1.895e-9
-0.112, -1.907e-9
-0.113, -1.918e-9
-0.114, -1.928e-9
-0.115, -1.939e-9
-0.116, -1.952e-9
-0.117, -1.962e-9
-0.118, -1.972e-9
-0.119, -1.984e-9
-0.120, -1.997e-9
-0.121, -2.009e-9
-0.122, -2.018e-9
-0.123, -2.029e-9
-0.124, -2.041e-9
-0.125, -2.050e-9
-0.126, -2.060e-9
-0.127, -2.073e-9
-0.128, -2.087e-9
-0.129, -2.097e-9
-0.130, -2.107e-9
-0.131, -2.120e-9
-0.132, -2.133e-9
-0.133, -2.142e-9
-0.134, -2.152e-9
-0.135, -2.163e-9
-0.136, -2.175e-9
-0.137, -2.186e-9
-0.138, -2.197e-9
-0.139, -2.212e-9
-0.140, -2.225e-9
-0.141, -2.236e-9
-0.142, -2.248e-9
-0.143, -2.259e-9
-0.144, -2.270e-9
-0.145, -2.280e-9
-0.146, -2.289e-9
-0.147, -2.302e-9
-0.148, -2.316e-9
-0.149, -2.327e-9
-0.150, -2.337e-9
-0.151, -2.352e-9
-0.152, -2.367e-9
-0.153, -2.377e-9
-0.154, -2.385e-9
-0.155, -2.398e-9
-0.156, -2.413e-9
-0.157, -2.424e-9
-0.158, -2.434e-9
-0.159, -2.447e-9
-0.160, -2.462e-9
-0.161, -2.475e-9
-0.162, -2.484e-9
-0.163, -2.495e-9
-0.164, -2.510e-9
-0.165, -2.522e-9
-0.166, -2.530e-9
-0.167, -2.540e-9
-0.168, -2.556e-9
-0.169, -2.571e-9
-0.170, -2.579e-9
-0.171, -2.587e-9
-0.172, -2.602e-9
-0.173, -2.618e-9
-0.174, -2.628e-9
-0.175, -2.637e-9
-0.176, -2.649e-9
-0.177, -2.666e-9
-0.178, -2.675e-9
-0.179, -2.681e-9
-0.180, -2.694e-9
-0.181, -2.713e-9
-0.182, -2.725e-9
-0.183, -2.732e-9
-0.184, -2.745e-9
-0.185, -2.763e-9
-0.186, -2.775e-9
-0.187, -2.782e-9
-0.188, -2.792e-9
-0.189, -2.808e-9
-0.190, -2.823e-9
-0.191, -2.831e-9
-0.192, -2.841e-9
-0.193, -2.857e-9
-0.194, -2.872e-9
-0.195, -2.882e-9
-0.196, -2.890e-9
-0.197, -2.903e-9
-0.198, -2.917e-9
-0.199, -2.930e-9
-0.200, -2.940e-9
-0.201, -2.952e-9
-0.202, -2.967e-9
-0.203, -2.979e-9
-0.204, -2.990e-9
-0.205, -2.999e-9
-0.206, -3.012e-9
-0.207, -3.026e-9
-0.208, -3.036e-9
-0.209, -3.046e-9
-0.210, -3.060e-9
-0.211, -3.074e-9
-0.212, -3.082e-9
-0.213, -3.091e-9
-0.214, -3.107e-9
-0.215, -3.120e-9
-0.216, -3.129e-9
-0.217, -3.139e-9
-0.218, -3.153e-9
-0.219, -3.165e-9
-0.220, -3.174e-9
-0.221, -3.185e-9
-0.222, -3.201e-9
-0.223, -3.217e-9
-0.224, -3.228e-9
-0.225, -3.240e-9
-0.226, -3.254e-9
-0.227, -3.267e-9
-0.228, -3.275e-9
-0.229, -3.286e-9
-0.230, -3.301e-9
-0.231, -3.316e-9
-0.232, -3.324e-9
-0.233, -3.337e-9
-0.234, -3.354e-9
-0.235, -3.368e-9
-0.236, -3.375e-9
-0.237, -3.385e-9
-0.238, -3.402e-9
-0.239, -3.418e-9
-0.240, -3.427e-9
-0.241, -3.435e-9
-0.242, -3.450e-9
-0.243, -3.465e-9
-0.244, -3.476e-9
-0.245, -3.483e-9
-0.246, -3.495e-9
-0.247, -3.507e-9
-0.248, -3.517e-9
-0.249, -3.524e-9
-0.250, -3.535e-9
-0.251, -3.551e-9
-0.252, -3.563e-9
-0.253, -3.570e-9
-0.254, -3.584e-9
-0.255, -3.600e-9
-0.256, -3.612e-9
-0.257, -3.622e-9
-0.258, -3.633e-9
-0.259, -3.649e-9
-0.260, -3.664e-9
-0.261, -3.673e-9
-0.262, -3.685e-9
-0.263, -3.703e-9
-0.264, -3.716e-9
-0.265, -3.724e-9
-0.266, -3.734e-9
-0.267, -3.747e-9
-0.268, -3.758e-9
-0.269, -3.766e-9
-0.270, -3.780e-9
-0.271, -3.795e-9
-0.272, -3.806e-9
-0.273, -3.819e-9
-0.274, -3.831e-9
-0.275, -3.841e-9
-0.276, -3.853e-9
-0.277, -3.864e-9
-0.278, -3.874e-9
-0.279, -3.887e-9
-0.280, -3.901e-9
-0.281, -3.914e-9
-0.282, -3.925e-9
-0.283, -3.937e-9
-0.284, -3.953e-9
-0.285, -3.968e-9
-0.286, -3.978e-9
-0.287, -3.989e-9
-0.288, -4.000e-9
-0.289, -4.011e-9
-0.290, -4.022e-9
-0.291, -4.032e-9
-0.292, -4.044e-9
-0.293, -4.057e-9
-0.294, -4.067e-9
-0.295, -4.080e-9
-0.296, -4.092e-9
-0.297, -4.106e-9
-0.298, -4.120e-9
-0.299, -4.133e-9
-0.300, -4.147e-9
-0.301, -4.158e-9
-0.302, -4.173e-9
-0.303, -4.191e-9
-0.304, -4.202e-9
-0.305, -4.210e-9
-0.306, -4.223e-9
-0.307, -4.237e-9
-0.308, -4.252e-9
-0.309, -4.260e-9
-0.310, -4.270e-9
-0.311, -4.281e-9
-0.312, -4.297e-9
-0.313, -4.308e-9
-0.314, -4.318e-9
-0.315, -4.330e-9
-0.316, -4.345e-9
-0.317, -4.357e-9
-0.318, -4.367e-9
-0.319, -4.379e-9
-0.320, -4.395e-9
-0.321, -4.408e-9
-0.322, -4.419e-9
-0.323, -4.432e-9
-0.324, -4.446e-9
-0.325, -4.460e-9
-0.326, -4.470e-9
-0.327, -4.480e-9
-0.328, -4.490e-9
-0.329, -4.503e-9
-0.330, -4.514e-9
-0.331, -4.526e-9
-0.332, -4.539e-9
-0.333, -4.551e-9
-0.334, -4.563e-9
-0.335, -4.578e-9
-0.336, -4.587e-9
-0.337, -4.600e-9
-0.338, -4.616e-9
-0.339, -4.632e-9
-0.340, -4.640e-9
-0.341, -4.653e-9
-0.342, -4.672e-9
-0.343, -4.688e-9
-0.344, -4.698e-9
-0.345, -4.709e-9
-0.346, -4.723e-9
-0.347, -4.739e-9
-0.348, -4.751e-9
-0.349, -4.766e-9
-0.350, -4.783e-9
-0.351, -4.800e-9
-0.352, -4.814e-9
-0.353, -4.828e-9
-0.354, -4.842e-9
-0.355, -4.857e-9
-0.356, -4.873e-9
-0.357, -4.887e-9
-0.358, -4.898e-9
-0.359, -4.914e-9
-0.360, -4.935e-9
-0.361, -4.950e-9
-0.362, -4.963e-9
-0.363, -4.976e-9
-0.364, -4.992e-9
-0.365, -5.008e-9
-0.366, -5.024e-9
-0.367, -5.038e-9
-0.368, -5.057e-9
-0.369, -5.075e-9
-0.370, -5.089e-9
-0.371, -5.103e-9
-0.372, -5.117e-9
-0.373, -5.131e-9
-0.374, -5.146e-9
-0.375, -5.160e-9
-0.376, -5.173e-9
-0.377, -5.187e-9
-0.378, -5.202e-9
-0.379, -5.218e-9
-0.380, -5.229e-9
-0.381, -5.242e-9
-0.382, -5.258e-9
-0.383, -5.273e-9
-0.384, -5.284e-9
-0.385, -5.297e-9
-0.386, -5.311e-9
-0.387, -5.327e-9
-0.388, -5.339e-9
-0.389, -5.350e-9
-0.390, -5.365e-9
-0.391, -5.383e-9
-0.392, -5.394e-9
-0.393, -5.404e-9
-0.394, -5.420e-9
-0.395, -5.441e-9
-0.396, -5.456e-9
-0.397, -5.469e-9
-0.398, -5.481e-9
-0.399, -5.500e-9
-0.400, -5.517e-9
-0.401, -5.527e-9
-0.402, -5.538e-9
-0.403, -5.556e-9
-0.404, -5.572e-9
-0.405, -5.584e-9
-0.406, -5.596e-9
-0.407, -5.611e-9
-0.408, -5.633e-9
-0.409, -5.651e-9
-0.410, -5.667e-9
-0.411, -5.679e-9
-0.412, -5.695e-9
-0.413, -5.708e-9
-0.414, -5.721e-9
-0.415, -5.734e-9
-0.416, -5.751e-9
-0.417, -5.768e-9
-0.418, -5.780e-9
-0.419, -5.791e-9
-0.420, -5.807e-9
-0.421, -5.826e-9
-0.422, -5.842e-9
-0.423, -5.853e-9
-0.424, -5.864e-9
-0.425, -5.878e-9
-0.426, -5.895e-9
-0.427, -5.912e-9
-0.428, -5.921e-9
-0.429, -5.937e-9
-0.430, -5.960e-9
-0.431, -5.979e-9
-0.432, -5.990e-9
-0.433, -6.002e-9
-0.434, -6.021e-9
-0.435, -6.038e-9
-0.436, -6.053e-9
-0.437, -6.064e-9
-0.438, -6.080e-9
-0.439, -6.097e-9
-0.440, -6.110e-9
-0.441, -6.124e-9
-0.442, -6.139e-9
-0.443, -6.158e-9
-0.444, -6.170e-9
-0.445, -6.183e-9
-0.446, -6.193e-9
-0.447, -6.211e-9
-0.448, -6.217e-9
-0.449, -6.238e-9
-0.450, -6.251e-9
-0.451, -6.267e-9
-0.452, -6.281e-9
-0.453, -6.294e-9
-0.454, -6.305e-9
-0.455, -6.319e-9
-0.456, -6.339e-9
-0.457, -6.358e-9
-0.458, -6.368e-9
-0.459, -6.378e-9
-0.460, -6.399e-9
-0.461, -6.417e-9
-0.462, -6.435e-9
-0.463, -6.442e-9
-0.464, -6.457e-9
-0.465, -6.477e-9
-0.466, -6.493e-9
-0.467, -6.505e-9
-0.468, -6.515e-9
-0.469, -6.531e-9
-0.470, -6.550e-9
-0.471, -6.559e-9
-0.472, -6.571e-9
-0.473, -6.587e-9
-0.474, -6.608e-9
-0.475, -6.625e-9
-0.476, -6.635e-9
-0.477, -6.651e-9
-0.478, -6.670e-9
-0.479, -6.689e-9
-0.480, -6.697e-9
-0.481, -6.710e-9
-0.482, -6.732e-9
-0.483, -6.749e-9
-0.484, -6.760e-9
-0.485, -6.769e-9
-0.486, -6.786e-9
-0.487, -6.805e-9
-0.488, -6.816e-9
-0.489, -6.825e-9
-0.490, -6.840e-9
-0.491, -6.863e-9
-0.492, -6.881e-9
-0.493, -6.892e-9
-0.494, -6.900e-9
-0.495, -6.916e-9
-0.496, -6.935e-9
-0.497, -6.947e-9
-0.498, -6.957e-9
-0.499, -6.980e-9
