Mar. 6, 2025   16:06:29
Cyclic Voltammetry
File: cv surface (incubation) (2).bin
Data Source:  Experiment
Instrument Model:  CHI920C
Ref. Electrode: 
Header: 
Note: 

Init E (V) = -0.5
High E (V) = 0.5
Low E (V) = -0.5
Init P/N = P
Scan Rate (V/s) = 0.05
Segment = 2
Sample Interval (V) = 0.001
Quiet Time (sec) = 10
Sensitivity (A/V) = 1e-7

Results:

Channel 1:
Segment 1:

Segment 2:

Potential/V, Current/A

-0.500, -5.202e-9
-0.499, -5.147e-9
-0.498, -5.098e-9
-0.497, -5.057e-9
-0.496, -5.021e-9
-0.495, -4.986e-9
-0.494, -4.955e-9
-0.493, -4.923e-9
-0.492, -4.890e-9
-0.491, -4.858e-9
-0.490, -4.829e-9
-0.489, -4.799e-9
-0.488, -4.771e-9
-0.487, -4.745e-9
-0.486, -4.720e-9
-0.485, -4.694e-9
-0.484, -4.668e-9
-0.483, -4.636e-9
-0.482, -4.606e-9
-0.481, -4.578e-9
-0.480, -4.551e-9
-0.479, -4.523e-9
-0.478, -4.498e-9
-0.477, -4.475e-9
-0.476, -4.451e-9
-0.475, -4.428e-9
-0.474, -4.400e-9
-0.473, -4.374e-9
-0.472, -4.351e-9
-0.471, -4.329e-9
-0.470, -4.303e-9
-0.469, -4.278e-9
-0.468, -4.257e-9
-0.467, -4.238e-9
-0.466, -4.218e-9
-0.465, -4.194e-9
-0.464, -4.169e-9
-0.463, -4.148e-9
-0.462, -4.124e-9
-0.461, -4.099e-9
-0.460, -4.074e-9
-0.459, -4.050e-9
-0.458, -4.028e-9
-0.457, -4.006e-9
-0.456, -3.983e-9
-0.455, -3.963e-9
-0.454, -3.943e-9
-0.453, -3.919e-9
-0.452, -3.895e-9
-0.451, -3.875e-9
-0.450, -3.855e-9
-0.449, -3.832e-9
-0.448, -3.809e-9
-0.447, -3.788e-9
-0.446, -3.769e-9
-0.445, -3.751e-9
-0.444, -3.730e-9
-0.443, -3.709e-9
-0.442, -3.688e-9
-0.441, -3.669e-9
-0.440, -3.645e-9
-0.439, -3.622e-9
-0.438, -3.603e-9
-0.437, -3.583e-9
-0.436, -3.562e-9
-0.435, -3.542e-9
-0.434, -3.523e-9
-0.433, -3.507e-9
-0.432, -3.490e-9
-0.431, -3.470e-9
-0.430, -3.451e-9
-0.429, -3.432e-9
-0.428, -3.412e-9
-0.427, -3.392e-9
-0.426, -3.372e-9
-0.425, -3.354e-9
-0.424, -3.331e-9
-0.423, -3.309e-9
-0.422, -3.291e-9
-0.421, -3.271e-9
-0.420, -3.254e-9
-0.419, -3.236e-9
-0.418, -3.218e-9
-0.417, -3.199e-9
-0.416, -3.178e-9
-0.415, -3.159e-9
-0.414, -3.145e-9
-0.413, -3.126e-9
-0.412, -3.106e-9
-0.411, -3.087e-9
-0.410, -3.069e-9
-0.409, -3.051e-9
-0.408, -3.030e-9
-0.407, -3.011e-9
-0.406, -2.996e-9
-0.405, -2.980e-9
-0.404, -2.958e-9
-0.403, -2.939e-9
-0.402, -2.923e-9
-0.401, -2.909e-9
-0.400, -2.890e-9
-0.399, -2.869e-9
-0.398, -2.852e-9
-0.397, -2.840e-9
-0.396, -2.823e-9
-0.395, -2.800e-9
-0.394, -2.783e-9
-0.393, -2.772e-9
-0.392, -2.757e-9
-0.391, -2.733e-9
-0.390, -2.714e-9
-0.389, -2.700e-9
-0.388, -2.683e-9
-0.387, -2.662e-9
-0.386, -2.646e-9
-0.385, -2.636e-9
-0.384, -2.623e-9
-0.383, -2.602e-9
-0.382, -2.582e-9
-0.381, -2.570e-9
-0.380, -2.558e-9
-0.379, -2.536e-9
-0.378, -2.516e-9
-0.377, -2.503e-9
-0.376, -2.491e-9
-0.375, -2.471e-9
-0.374, -2.452e-9
-0.373, -2.439e-9
-0.372, -2.428e-9
-0.371, -2.410e-9
-0.370, -2.389e-9
-0.369, -2.376e-9
-0.368, -2.365e-9
-0.367, -2.348e-9
-0.366, -2.325e-9
-0.365, -2.309e-9
-0.364, -2.299e-9
-0.363, -2.287e-9
-0.362, -2.268e-9
-0.361, -2.253e-9
-0.360, -2.242e-9
-0.359, -2.227e-9
-0.358, -2.207e-9
-0.357, -2.191e-9
-0.356, -2.179e-9
-0.355, -2.167e-9
-0.354, -2.150e-9
-0.353, -2.133e-9
-0.352, -2.121e-9
-0.351, -2.109e-9
-0.350, -2.092e-9
-0.349, -2.074e-9
-0.348, -2.063e-9
-0.347, -2.052e-9
-0.346, -2.034e-9
-0.345, -2.020e-9
-0.344, -2.008e-9
-0.343, -1.994e-9
-0.342, -1.979e-9
-0.341, -1.961e-9
-0.340, -1.948e-9
-0.339, -1.936e-9
-0.338, -1.922e-9
-0.337, -1.907e-9
-0.336, -1.895e-9
-0.335, -1.882e-9
-0.334, -1.867e-9
-0.333, -1.853e-9
-0.332, -1.839e-9
-0.331, -1.827e-9
-0.330, -1.813e-9
-0.329, -1.801e-9
-0.328, -1.788e-9
-0.327, -1.777e-9
-0.326, -1.764e-9
-0.325, -1.750e-9
-0.324, -1.737e-9
-0.323, -1.722e-9
-0.322, -1.709e-9
-0.321, -1.697e-9
-0.320, -1.687e-9
-0.319, -1.674e-9
-0.318, -1.661e-9
-0.317, -1.651e-9
-0.316, -1.639e-9
-0.315, -1.628e-9
-0.314, -1.615e-9
-0.313, -1.602e-9
-0.312, -1.592e-9
-0.311, -1.580e-9
-0.310, -1.567e-9
-0.309, -1.555e-9
-0.308, -1.545e-9
-0.307, -1.534e-9
-0.306, -1.521e-9
-0.305, -1.504e-9
-0.304, -1.495e-9
-0.303, -1.486e-9
-0.302, -1.472e-9
-0.301, -1.455e-9
-0.300, -1.445e-9
-0.299, -1.437e-9
-0.298, -1.426e-9
-0.297, -1.412e-9
-0.296, -1.398e-9
-0.295, -1.392e-9
-0.294, -1.383e-9
-0.293, -1.366e-9
-0.292, -1.353e-9
-0.291, -1.347e-9
-0.290, -1.340e-9
-0.289, -1.326e-9
-0.288, -1.311e-9
-0.287, -1.304e-9
-0.286, -1.299e-9
-0.285, -1.286e-9
-0.284, -1.270e-9
-0.283, -1.262e-9
-0.282, -1.256e-9
-0.281, -1.242e-9
-0.280, -1.224e-9
-0.279, -1.212e-9
-0.278, -1.208e-9
-0.277, -1.197e-9
-0.276, -1.182e-9
-0.275, -1.170e-9
-0.274, -1.164e-9
-0.273, -1.157e-9
-0.272, -1.144e-9
-0.271, -1.132e-9
-0.270, -1.123e-9
-0.269, -1.117e-9
-0.268, -1.107e-9
-0.267, -1.093e-9
-0.266, -1.082e-9
-0.265, -1.079e-9
-0.264, -1.069e-9
-0.263, -1.056e-9
-0.262, -1.046e-9
-0.261, -1.041e-9
-0.260, -1.030e-9
-0.259, -1.016e-9
-0.258, -1.004e-9
-0.257, -9.963e-10
-0.256, -9.863e-10
-0.255, -9.737e-10
-0.254, -9.625e-10
-0.253, -9.572e-10
-0.252, -9.493e-10
-0.251, -9.379e-10
-0.250, -9.287e-10
-0.249, -9.218e-10
-0.248, -9.138e-10
-0.247, -9.022e-10
-0.246, -8.923e-10
-0.245, -8.838e-10
-0.244, -8.759e-10
-0.243, -8.666e-10
-0.242, -8.578e-10
-0.241, -8.486e-10
-0.240, -8.404e-10
-0.239, -8.321e-10
-0.238, -8.248e-10
-0.237, -8.152e-10
-0.236, -8.077e-10
-0.235, -7.996e-10
-0.234, -7.923e-10
-0.233, -7.842e-10
-0.232, -7.759e-10
-0.231, -7.671e-10
-0.230, -7.590e-10
-0.229, -7.483e-10
-0.228, -7.379e-10
-0.227, -7.301e-10
-0.226, -7.207e-10
-0.225, -7.112e-10
-0.224, -7.035e-10
-0.223, -6.965e-10
-0.222, -6.889e-10
-0.221, -6.801e-10
-0.220, -6.724e-10
-0.219, -6.638e-10
-0.218, -6.555e-10
-0.217, -6.481e-10
-0.216, -6.412e-10
-0.215, -6.333e-10
-0.214, -6.252e-10
-0.213, -6.159e-10
-0.212, -6.073e-10
-0.211, -5.998e-10
-0.210, -5.909e-10
-0.209, -5.839e-10
-0.208, -5.771e-10
-0.207, -5.695e-10
-0.206, -5.620e-10
-0.205, -5.567e-10
-0.204, -5.479e-10
-0.203, -5.401e-10
-0.202, -5.318e-10
-0.201, -5.233e-10
-0.200, -5.136e-10
-0.199, -5.040e-10
-0.198, -4.950e-10
-0.197, -4.867e-10
-0.196, -4.786e-10
-0.195, -4.712e-10
-0.194, -4.650e-10
-0.193, -4.568e-10
-0.192, -4.482e-10
-0.191, -4.404e-10
-0.190, -4.356e-10
-0.189, -4.274e-10
-0.188, -4.204e-10
-0.187, -4.120e-10
-0.186, -4.056e-10
-0.185, -3.982e-10
-0.184, -3.913e-10
-0.183, -3.846e-10
-0.182, -3.787e-10
-0.181, -3.702e-10
-0.180, -3.617e-10
-0.179, -3.562e-10
-0.178, -3.512e-10
-0.177, -3.436e-10
-0.176, -3.358e-10
-0.175, -3.303e-10
-0.174, -3.249e-10
-0.173, -3.175e-10
-0.172, -3.104e-10
-0.171, -3.054e-10
-0.170, -2.986e-10
-0.169, -2.907e-10
-0.168, -2.831e-10
-0.167, -2.788e-10
-0.166, -2.713e-10
-0.165, -2.622e-10
-0.164, -2.530e-10
-0.163, -2.467e-10
-0.162, -2.255e-10
-0.161, -2.301e-10
-0.160, -2.244e-10
-0.159, -2.181e-10
-0.158, -2.119e-10
-0.157, -2.062e-10
-0.156, -2.006e-10
-0.155, -1.945e-10
-0.154, -1.880e-10
-0.153, -1.821e-10
-0.152, -1.747e-10
-0.151, -1.662e-10
-0.150, -1.631e-10
-0.149, -1.584e-10
-0.148, -1.449e-10
-0.147, -1.362e-10
-0.146, -1.393e-10
-0.145, -1.368e-10
-0.144, -1.188e-10
-0.143, -1.055e-10
-0.142, -1.130e-10
-0.141, -1.173e-10
-0.140, -9.588e-11
-0.139, -7.668e-11
-0.138, -8.350e-11
-0.137, -9.666e-11
-0.136, -7.882e-11
-0.135, -4.968e-11
-0.134, -5.367e-11
-0.133, -7.219e-11
-0.132, -5.894e-11
-0.131, -2.472e-11
-0.130, -2.297e-11
-0.129, -4.354e-11
-0.128, -3.691e-11
-0.127, 2.340e-13
-0.126, 1.018e-11
-0.125, -1.010e-11
-0.124, -1.166e-11
-0.123, 1.954e-11
-0.122, 3.279e-11
-0.121, 2.041e-11
-0.120, 1.534e-11
-0.119, 3.601e-11
-0.118, 5.170e-11
-0.117, 4.673e-11
-0.116, 4.069e-11
-0.115, 5.463e-11
-0.114, 7.227e-11
-0.113, 7.247e-11
-0.112, 6.740e-11
-0.111, 7.617e-11
-0.110, 8.670e-11
-0.109, 9.508e-11
-0.108, 9.440e-11
-0.107, 9.772e-11
-0.106, 1.084e-10
-0.105, 1.181e-10
-0.104, 1.210e-10
-0.103, 1.224e-10
-0.102, 1.315e-10
-0.101, 1.410e-10
-0.100, 1.455e-10
-0.099, 1.458e-10
-0.098, 1.497e-10
-0.097, 1.584e-10
-0.096, 1.648e-10
-0.095, 1.672e-10
-0.094, 1.687e-10
-0.093, 1.765e-10
-0.092, 1.858e-10
-0.091, 1.893e-10
-0.090, 1.895e-10
-0.089, 1.928e-10
-0.088, 2.011e-10
-0.087, 2.105e-10
-0.086, 2.142e-10
-0.085, 2.160e-10
-0.084, 2.240e-10
-0.083, 2.357e-10
-0.082, 2.413e-10
-0.081, 2.417e-10
-0.080, 2.464e-10
-0.079, 2.569e-10
-0.078, 2.630e-10
-0.077, 2.630e-10
-0.076, 2.646e-10
-0.075, 2.755e-10
-0.074, 2.851e-10
-0.073, 2.840e-10
-0.072, 2.841e-10
-0.071, 2.930e-10
-0.070, 3.044e-10
-0.069, 3.084e-10
-0.068, 3.071e-10
-0.067, 3.106e-10
-0.066, 3.225e-10
-0.065, 3.290e-10
-0.064, 3.269e-10
-0.063, 3.301e-10
-0.062, 3.408e-10
-0.061, 3.502e-10
-0.060, 3.496e-10
-0.059, 3.516e-10
-0.058, 3.612e-10
-0.057, 3.695e-10
-0.056, 3.717e-10
-0.055, 3.699e-10
-0.054, 3.767e-10
-0.053, 3.865e-10
-0.052, 3.892e-10
-0.051, 3.870e-10
-0.050, 3.926e-10
-0.049, 4.037e-10
-0.048, 4.074e-10
-0.047, 4.069e-10
-0.046, 4.117e-10
-0.045, 4.212e-10
-0.044, 4.257e-10
-0.043, 4.266e-10
-0.042, 4.301e-10
-0.041, 4.390e-10
-0.040, 4.460e-10
-0.039, 4.487e-10
-0.038, 4.505e-10
-0.037, 4.590e-10
-0.036, 4.667e-10
-0.035, 4.707e-10
-0.034, 4.727e-10
-0.033, 4.783e-10
-0.032, 4.882e-10
-0.031, 4.949e-10
-0.030, 4.963e-10
-0.029, 4.983e-10
-0.028, 5.053e-10
-0.027, 5.139e-10
-0.026, 5.165e-10
-0.025, 5.178e-10
-0.024, 5.229e-10
-0.023, 5.309e-10
-0.022, 5.349e-10
-0.021, 5.352e-10
-0.020, 5.389e-10
-0.019, 5.468e-10
-0.018, 5.551e-10
-0.017, 5.566e-10
-0.016, 5.568e-10
-0.015, 5.632e-10
-0.014, 5.706e-10
-0.013, 5.745e-10
-0.012, 5.752e-10
-0.011, 5.803e-10
-0.010, 5.881e-10
-0.009, 5.948e-10
-0.008, 5.950e-10
-0.007, 5.959e-10
-0.006, 6.036e-10
-0.005, 6.110e-10
-0.004, 6.113e-10
-0.003, 6.097e-10
-0.002, 6.175e-10
-0.001, 6.255e-10
0.000, 6.260e-10
0.001, 6.257e-10
0.002, 6.299e-10
0.003, 6.391e-10
0.004, 6.453e-10
0.005, 6.438e-10
0.006, 6.452e-10
0.007, 6.530e-10
0.008, 6.583e-10
0.009, 6.566e-10
0.010, 6.571e-10
0.011, 6.647e-10
0.012, 6.738e-10
0.013, 6.760e-10
0.014, 6.748e-10
0.015, 6.814e-10
0.016, 6.905e-10
0.017, 6.940e-10
0.018, 6.925e-10
0.019, 6.957e-10
0.020, 7.053e-10
0.021, 7.134e-10
0.022, 7.119e-10
0.023, 7.125e-10
0.024, 7.180e-10
0.025, 7.264e-10
0.026, 7.278e-10
0.027, 7.244e-10
0.028, 7.289e-10
0.029, 7.402e-10
0.030, 7.471e-10
0.031, 7.452e-10
0.032, 7.449e-10
0.033, 7.546e-10
0.034, 7.618e-10
0.035, 7.597e-10
0.036, 7.579e-10
0.037, 7.673e-10
0.038, 7.753e-10
0.039, 7.749e-10
0.040, 7.709e-10
0.041, 7.799e-10
0.042, 7.937e-10
0.043, 7.967e-10
0.044, 7.908e-10
0.045, 7.957e-10
0.046, 8.100e-10
0.047, 8.147e-10
0.048, 8.097e-10
0.049, 8.129e-10
0.050, 8.235e-10
0.051, 8.272e-10
0.052, 8.238e-10
0.053, 8.246e-10
0.054, 8.319e-10
0.055, 8.373e-10
0.056, 8.383e-10
0.057, 8.402e-10
0.058, 8.465e-10
0.059, 8.503e-10
0.060, 8.506e-10
0.061, 8.520e-10
0.062, 8.566e-10
0.063, 8.614e-10
0.064, 8.637e-10
0.065, 8.641e-10
0.066, 8.663e-10
0.067, 8.720e-10
0.068, 8.768e-10
0.069, 8.770e-10
0.070, 8.795e-10
0.071, 8.859e-10
0.072, 8.902e-10
0.073, 8.898e-10
0.074, 8.907e-10
0.075, 8.990e-10
0.076, 9.080e-10
0.077, 9.095e-10
0.078, 9.120e-10
0.079, 9.181e-10
0.080, 9.245e-10
0.081, 9.241e-10
0.082, 9.234e-10
0.083, 9.290e-10
0.084, 9.364e-10
0.085, 9.384e-10
0.086, 9.387e-10
0.087, 9.424e-10
0.088, 9.464e-10
0.089, 9.512e-10
0.090, 9.517e-10
0.091, 9.559e-10
0.092, 9.619e-10
0.093, 9.675e-10
0.094, 9.704e-10
0.095, 9.715e-10
0.096, 9.751e-10
0.097, 9.828e-10
0.098, 9.880e-10
0.099, 9.876e-10
0.100, 9.874e-10
0.101, 9.925e-10
0.102, 9.980e-10
0.103, 1.001e-9
0.104, 1.001e-9
0.105, 1.003e-9
0.106, 1.003e-9
0.107, 1.008e-9
0.108, 1.012e-9
0.109, 1.013e-9
0.110, 1.019e-9
0.111, 1.022e-9
0.112, 1.024e-9
0.113, 1.024e-9
0.114, 1.027e-9
0.115, 1.032e-9
0.116, 1.036e-9
0.117, 1.037e-9
0.118, 1.040e-9
0.119, 1.043e-9
0.120, 1.049e-9
0.121, 1.053e-9
0.122, 1.054e-9
0.123, 1.057e-9
0.124, 1.066e-9
0.125, 1.068e-9
0.126, 1.066e-9
0.127, 1.066e-9
0.128, 1.073e-9
0.129, 1.078e-9
0.130, 1.078e-9
0.131, 1.079e-9
0.132, 1.083e-9
0.133, 1.090e-9
0.134, 1.093e-9
0.135, 1.096e-9
0.136, 1.101e-9
0.137, 1.103e-9
0.138, 1.102e-9
0.139, 1.106e-9
0.140, 1.112e-9
0.141, 1.114e-9
0.142, 1.117e-9
0.143, 1.119e-9
0.144, 1.122e-9
0.145, 1.126e-9
0.146, 1.128e-9
0.147, 1.131e-9
0.148, 1.133e-9
0.149, 1.136e-9
0.150, 1.142e-9
0.151, 1.144e-9
0.152, 1.145e-9
0.153, 1.153e-9
0.154, 1.152e-9
0.155, 1.154e-9
0.156, 1.159e-9
0.157, 1.165e-9
0.158, 1.170e-9
0.159, 1.173e-9
0.160, 1.173e-9
0.161, 1.182e-9
0.162, 1.186e-9
0.163, 1.189e-9
0.164, 1.195e-9
0.165, 1.199e-9
0.166, 1.200e-9
0.167, 1.202e-9
0.168, 1.208e-9
0.169, 1.214e-9
0.170, 1.216e-9
0.171, 1.220e-9
0.172, 1.223e-9
0.173, 1.231e-9
0.174, 1.233e-9
0.175, 1.236e-9
0.176, 1.240e-9
0.177, 1.249e-9
0.178, 1.256e-9
0.179, 1.256e-9
0.180, 1.257e-9
0.181, 1.261e-9
0.182, 1.265e-9
0.183, 1.264e-9
0.184, 1.267e-9
0.185, 1.276e-9
0.186, 1.283e-9
0.187, 1.289e-9
0.188, 1.291e-9
0.189, 1.294e-9
0.190, 1.303e-9
0.191, 1.305e-9
0.192, 1.305e-9
0.193, 1.311e-9
0.194, 1.322e-9
0.195, 1.326e-9
0.196, 1.327e-9
0.197, 1.328e-9
0.198, 1.339e-9
0.199, 1.344e-9
0.200, 1.346e-9
0.201, 1.349e-9
0.202, 1.356e-9
0.203, 1.364e-9
0.204, 1.370e-9
0.205, 1.369e-9
0.206, 1.373e-9
0.207, 1.378e-9
0.208, 1.385e-9
0.209, 1.389e-9
0.210, 1.391e-9
0.211, 1.400e-9
0.212, 1.410e-9
0.213, 1.415e-9
0.214, 1.417e-9
0.215, 1.424e-9
0.216, 1.431e-9
0.217, 1.438e-9
0.218, 1.442e-9
0.219, 1.443e-9
0.220, 1.450e-9
0.221, 1.457e-9
0.222, 1.460e-9
0.223, 1.462e-9
0.224, 1.465e-9
0.225, 1.477e-9
0.226, 1.485e-9
0.227, 1.487e-9
0.228, 1.491e-9
0.229, 1.493e-9
0.230, 1.500e-9
0.231, 1.506e-9
0.232, 1.510e-9
0.233, 1.516e-9
0.234, 1.522e-9
0.235, 1.527e-9
0.236, 1.531e-9
0.237, 1.538e-9
0.238, 1.547e-9
0.239, 1.551e-9
0.240, 1.551e-9
0.241, 1.556e-9
0.242, 1.564e-9
0.243, 1.567e-9
0.244, 1.572e-9
0.245, 1.579e-9
0.246, 1.584e-9
0.247, 1.591e-9
0.248, 1.593e-9
0.249, 1.595e-9
0.250, 1.603e-9
0.251, 1.614e-9
0.252, 1.615e-9
0.253, 1.614e-9
0.254, 1.621e-9
0.255, 1.627e-9
0.256, 1.635e-9
0.257, 1.641e-9
0.258, 1.645e-9
0.259, 1.655e-9
0.260, 1.663e-9
0.261, 1.666e-9
0.262, 1.676e-9
0.263, 1.691e-9
0.264, 1.701e-9
0.265, 1.698e-9
0.266, 1.696e-9
0.267, 1.705e-9
0.268, 1.717e-9
0.269, 1.717e-9
0.270, 1.715e-9
0.271, 1.722e-9
0.272, 1.734e-9
0.273, 1.739e-9
0.274, 1.737e-9
0.275, 1.741e-9
0.276, 1.755e-9
0.277, 1.759e-9
0.278, 1.755e-9
0.279, 1.762e-9
0.280, 1.770e-9
0.281, 1.775e-9
0.282, 1.774e-9
0.283, 1.778e-9
0.284, 1.788e-9
0.285, 1.798e-9
0.286, 1.799e-9
0.287, 1.803e-9
0.288, 1.809e-9
0.289, 1.822e-9
0.290, 1.830e-9
0.291, 1.830e-9
0.292, 1.833e-9
0.293, 1.844e-9
0.294, 1.851e-9
0.295, 1.848e-9
0.296, 1.853e-9
0.297, 1.865e-9
0.298, 1.874e-9
0.299, 1.875e-9
0.300, 1.881e-9
0.301, 1.893e-9
0.302, 1.903e-9
0.303, 1.907e-9
0.304, 1.913e-9
0.305, 1.922e-9
0.306, 1.930e-9
0.307, 1.934e-9
0.308, 1.941e-9
0.309, 1.950e-9
0.310, 1.962e-9
0.311, 1.967e-9
0.312, 1.967e-9
0.313, 1.975e-9
0.314, 1.982e-9
0.315, 1.985e-9
0.316, 1.991e-9
0.317, 1.998e-9
0.318, 2.009e-9
0.319, 2.013e-9
0.320, 2.012e-9
0.321, 2.021e-9
0.322, 2.036e-9
0.323, 2.041e-9
0.324, 2.041e-9
0.325, 2.049e-9
0.326, 2.058e-9
0.327, 2.063e-9
0.328, 2.063e-9
0.329, 2.069e-9
0.330, 2.077e-9
0.331, 2.083e-9
0.332, 2.085e-9
0.333, 2.091e-9
0.334, 2.096e-9
0.335, 2.100e-9
0.336, 2.102e-9
0.337, 2.107e-9
0.338, 2.113e-9
0.339, 2.119e-9
0.340, 2.124e-9
0.341, 2.132e-9
0.342, 2.137e-9
0.343, 2.148e-9
0.344, 2.155e-9
0.345, 2.160e-9
0.346, 2.166e-9
0.347, 2.179e-9
0.348, 2.185e-9
0.349, 2.189e-9
0.350, 2.193e-9
0.351, 2.196e-9
0.352, 2.200e-9
0.353, 2.204e-9
0.354, 2.208e-9
0.355, 2.215e-9
0.356, 2.218e-9
0.357, 2.220e-9
0.358, 2.228e-9
0.359, 2.232e-9
0.360, 2.231e-9
0.361, 2.239e-9
0.362, 2.245e-9
0.363, 2.252e-9
0.364, 2.253e-9
0.365, 2.258e-9
0.366, 2.267e-9
0.367, 2.273e-9
0.368, 2.276e-9
0.369, 2.283e-9
0.370, 2.294e-9
0.371, 2.299e-9
0.372, 2.302e-9
0.373, 2.304e-9
0.374, 2.312e-9
0.375, 2.320e-9
0.376, 2.321e-9
0.377, 2.327e-9
0.378, 2.335e-9
0.379, 2.344e-9
0.380, 2.348e-9
0.381, 2.350e-9
0.382, 2.359e-9
0.383, 2.365e-9
0.384, 2.370e-9
0.385, 2.373e-9
0.386, 2.378e-9
0.387, 2.384e-9
0.388, 2.384e-9
0.389, 2.389e-9
0.390, 2.398e-9
0.391, 2.405e-9
0.392, 2.410e-9
0.393, 2.410e-9
0.394, 2.411e-9
0.395, 2.419e-9
0.396, 2.425e-9
0.397, 2.430e-9
0.398, 2.436e-9
0.399, 2.439e-9
0.400, 2.444e-9
0.401, 2.447e-9
0.402, 2.451e-9
0.403, 2.455e-9
0.404, 2.466e-9
0.405, 2.473e-9
0.406, 2.476e-9
0.407, 2.477e-9
0.408, 2.485e-9
0.409, 2.491e-9
0.410, 2.487e-9
0.411, 2.492e-9
0.412, 2.505e-9
0.413, 2.514e-9
0.414, 2.517e-9
0.415, 2.519e-9
0.416, 2.524e-9
0.417, 2.531e-9
0.418, 2.539e-9
0.419, 2.546e-9
0.420, 2.551e-9
0.421, 2.561e-9
0.422, 2.561e-9
0.423, 2.561e-9
0.424, 2.571e-9
0.425, 2.581e-9
0.426, 2.582e-9
0.427, 2.578e-9
0.428, 2.586e-9
0.429, 2.593e-9
0.430, 2.596e-9
0.431, 2.599e-9
0.432, 2.602e-9
0.433, 2.605e-9
0.434, 2.612e-9
0.435, 2.618e-9
0.436, 2.619e-9
0.437, 2.629e-9
0.438, 2.644e-9
0.439, 2.648e-9
0.440, 2.646e-9
0.441, 2.651e-9
0.442, 2.658e-9
0.443, 2.666e-9
0.444, 2.665e-9
0.445, 2.668e-9
0.446, 2.679e-9
0.447, 2.681e-9
0.448, 2.677e-9
0.449, 2.680e-9
0.450, 2.695e-9
0.451, 2.705e-9
0.452, 2.703e-9
0.453, 2.704e-9
0.454, 2.712e-9
0.455, 2.722e-9
0.456, 2.727e-9
0.457, 2.731e-9
0.458, 2.738e-9
0.459, 2.749e-9
0.460, 2.757e-9
0.461, 2.758e-9
0.462, 2.760e-9
0.463, 2.772e-9
0.464, 2.781e-9
0.465, 2.775e-9
0.466, 2.776e-9
0.467, 2.781e-9
0.468, 2.790e-9
0.469, 2.794e-9
0.470, 2.798e-9
0.471, 2.804e-9
0.472, 2.811e-9
0.473, 2.816e-9
0.474, 2.819e-9
0.475, 2.824e-9
0.476, 2.831e-9
0.477, 2.834e-9
0.478, 2.837e-9
0.479, 2.837e-9
0.480, 2.841e-9
0.481, 2.845e-9
0.482, 2.843e-9
0.483, 2.851e-9
0.484, 2.860e-9
0.485, 2.861e-9
0.486, 2.864e-9
0.487, 2.872e-9
0.488, 2.883e-9
0.489, 2.885e-9
0.490, 2.890e-9
0.491, 2.892e-9
0.492, 2.895e-9
0.493, 2.899e-9
0.494, 2.901e-9
0.495, 2.904e-9
0.496, 2.907e-9
0.497, 2.918e-9
0.498, 2.918e-9
0.499, 2.920e-9
0.500, 2.903e-9
0.499, 2.818e-9
0.498, 2.757e-9
0.497, 2.708e-9
0.496, 2.671e-9
0.495, 2.634e-9
0.494, 2.597e-9
0.493, 2.562e-9
0.492, 2.531e-9
0.491, 2.508e-9
0.490, 2.480e-9
0.489, 2.452e-9
0.488, 2.429e-9
0.487, 2.401e-9
0.486, 2.382e-9
0.485, 2.355e-9
0.484, 2.328e-9
0.483, 2.306e-9
0.482, 2.284e-9
0.481, 2.262e-9
0.480, 2.244e-9
0.479, 2.229e-9
0.478, 2.217e-9
0.477, 2.203e-9
0.476, 2.182e-9
0.475, 2.160e-9
0.474, 2.140e-9
0.473, 2.124e-9
0.472, 2.109e-9
0.471, 2.091e-9
0.470, 2.075e-9
0.469, 2.054e-9
0.468, 2.041e-9
0.467, 2.025e-9
0.466, 2.011e-9
0.465, 1.997e-9
0.464, 1.983e-9
0.463, 1.966e-9
0.462, 1.954e-9
0.461, 1.941e-9
0.460, 1.923e-9
0.459, 1.906e-9
0.458, 1.894e-9
0.457, 1.880e-9
0.456, 1.865e-9
0.455, 1.850e-9
0.454, 1.839e-9
0.453, 1.832e-9
0.452, 1.821e-9
0.451, 1.804e-9
0.450, 1.788e-9
0.449, 1.777e-9
0.448, 1.767e-9
0.447, 1.750e-9
0.446, 1.736e-9
0.445, 1.727e-9
0.444, 1.719e-9
0.443, 1.703e-9
0.442, 1.690e-9
0.441, 1.682e-9
0.440, 1.673e-9
0.439, 1.658e-9
0.438, 1.638e-9
0.437, 1.628e-9
0.436, 1.622e-9
0.435, 1.611e-9
0.434, 1.594e-9
0.433, 1.582e-9
0.432, 1.577e-9
0.431, 1.566e-9
0.430, 1.545e-9
0.429, 1.531e-9
0.428, 1.525e-9
0.427, 1.517e-9
0.426, 1.500e-9
0.425, 1.485e-9
0.424, 1.481e-9
0.423, 1.480e-9
0.422, 1.466e-9
0.421, 1.449e-9
0.420, 1.442e-9
0.419, 1.438e-9
0.418, 1.425e-9
0.417, 1.405e-9
0.416, 1.396e-9
0.415, 1.392e-9
0.414, 1.385e-9
0.413, 1.370e-9
0.412, 1.352e-9
0.411, 1.348e-9
0.410, 1.347e-9
0.409, 1.333e-9
0.408, 1.312e-9
0.407, 1.308e-9
0.406, 1.307e-9
0.405, 1.294e-9
0.404, 1.276e-9
0.403, 1.267e-9
0.402, 1.265e-9
0.401, 1.255e-9
0.400, 1.240e-9
0.399, 1.231e-9
0.398, 1.231e-9
0.397, 1.223e-9
0.396, 1.205e-9
0.395, 1.193e-9
0.394, 1.191e-9
0.393, 1.185e-9
0.392, 1.169e-9
0.391, 1.155e-9
0.390, 1.150e-9
0.389, 1.143e-9
0.388, 1.132e-9
0.387, 1.123e-9
0.386, 1.120e-9
0.385, 1.114e-9
0.384, 1.102e-9
0.383, 1.090e-9
0.382, 1.085e-9
0.381, 1.079e-9
0.380, 1.069e-9
0.379, 1.058e-9
0.378, 1.051e-9
0.377, 1.046e-9
0.376, 1.035e-9
0.375, 1.023e-9
0.374, 1.019e-9
0.373, 1.014e-9
0.372, 1.007e-9
0.371, 9.948e-10
0.370, 9.875e-10
0.369, 9.826e-10
0.368, 9.750e-10
0.367, 9.621e-10
0.366, 9.537e-10
0.365, 9.480e-10
0.364, 9.386e-10
0.363, 9.269e-10
0.362, 9.168e-10
0.361, 9.128e-10
0.360, 9.055e-10
0.359, 8.958e-10
0.358, 8.892e-10
0.357, 8.839e-10
0.356, 8.759e-10
0.355, 8.667e-10
0.354, 8.577e-10
0.353, 8.528e-10
0.352, 8.464e-10
0.351, 8.366e-10
0.350, 8.268e-10
0.349, 8.202e-10
0.348, 8.150e-10
0.347, 8.051e-10
0.346, 7.967e-10
0.345, 7.905e-10
0.344, 7.855e-10
0.343, 7.769e-10
0.342, 7.684e-10
0.341, 7.655e-10
0.340, 7.590e-10
0.339, 7.485e-10
0.338, 7.389e-10
0.337, 7.352e-10
0.336, 7.322e-10
0.335, 7.221e-10
0.334, 7.108e-10
0.333, 7.061e-10
0.332, 7.013e-10
0.331, 6.931e-10
0.330, 6.831e-10
0.329, 6.769e-10
0.328, 6.721e-10
0.327, 6.634e-10
0.326, 6.559e-10
0.325, 6.497e-10
0.324, 6.444e-10
0.323, 6.395e-10
0.322, 6.305e-10
0.321, 6.235e-10
0.320, 6.207e-10
0.319, 6.146e-10
0.318, 6.080e-10
0.317, 6.015e-10
0.316, 5.957e-10
0.315, 5.899e-10
0.314, 5.821e-10
0.313, 5.749e-10
0.312, 5.685e-10
0.311, 5.640e-10
0.310, 5.569e-10
0.309, 5.484e-10
0.308, 5.437e-10
0.307, 5.390e-10
0.306, 5.331e-10
0.305, 5.251e-10
0.304, 5.188e-10
0.303, 5.154e-10
0.302, 5.086e-10
0.301, 4.992e-10
0.300, 4.938e-10
0.299, 4.890e-10
0.298, 4.798e-10
0.297, 4.716e-10
0.296, 4.676e-10
0.295, 4.637e-10
0.294, 4.544e-10
0.293, 4.451e-10
0.292, 4.425e-10
0.291, 4.381e-10
0.290, 4.272e-10
0.289, 4.200e-10
0.288, 4.181e-10
0.287, 4.138e-10
0.286, 4.063e-10
0.285, 3.987e-10
0.284, 3.961e-10
0.283, 3.920e-10
0.282, 3.836e-10
0.281, 3.769e-10
0.280, 3.742e-10
0.279, 3.706e-10
0.278, 3.637e-10
0.277, 3.575e-10
0.276, 3.542e-10
0.275, 3.500e-10
0.274, 3.439e-10
0.273, 3.371e-10
0.272, 3.316e-10
0.271, 3.268e-10
0.270, 3.217e-10
0.269, 3.161e-10
0.268, 3.087e-10
0.267, 3.036e-10
0.266, 3.003e-10
0.265, 2.940e-10
0.264, 2.877e-10
0.263, 2.835e-10
0.262, 2.796e-10
0.261, 2.736e-10
0.260, 2.658e-10
0.259, 2.621e-10
0.258, 2.600e-10
0.257, 2.533e-10
0.256, 2.448e-10
0.255, 2.416e-10
0.254, 2.404e-10
0.253, 2.334e-10
0.252, 2.243e-10
0.251, 2.209e-10
0.250, 2.193e-10
0.249, 2.122e-10
0.248, 2.032e-10
0.247, 1.990e-10
0.246, 1.989e-10
0.245, 1.926e-10
0.244, 1.828e-10
0.243, 1.799e-10
0.242, 1.777e-10
0.241, 1.711e-10
0.240, 1.630e-10
0.239, 1.590e-10
0.238, 1.585e-10
0.237, 1.545e-10
0.236, 1.473e-10
0.235, 1.428e-10
0.234, 1.410e-10
0.233, 1.368e-10
0.232, 1.293e-10
0.231, 1.238e-10
0.230, 1.223e-10
0.229, 1.199e-10
0.228, 1.129e-10
0.227, 1.062e-10
0.226, 1.018e-10
0.225, 1.004e-10
0.224, 9.645e-11
0.223, 8.719e-11
0.222, 8.280e-11
0.221, 8.290e-11
0.220, 7.988e-11
0.219, 7.003e-11
0.218, 6.399e-11
0.217, 6.418e-11
0.216, 6.165e-11
0.215, 5.209e-11
0.214, 4.478e-11
0.213, 4.527e-11
0.212, 4.371e-11
0.211, 3.494e-11
0.210, 2.665e-11
0.209, 2.587e-11
0.208, 2.616e-11
0.207, 1.827e-11
0.206, 9.495e-12
0.205, 8.617e-12
0.204, 8.715e-12
0.203, 1.014e-12
0.202, -8.539e-12
0.201, -1.283e-11
0.200, -1.293e-11
0.199, -1.702e-11
0.198, -2.852e-11
0.197, -3.349e-11
0.196, -3.223e-11
0.195, -3.486e-11
0.194, -4.500e-11
0.193, -5.231e-11
0.192, -5.280e-11
0.191, -5.436e-11
0.190, -6.313e-11
0.189, -7.005e-11
0.188, -7.171e-11
0.187, -7.229e-11
0.186, -7.814e-11
0.185, -8.574e-11
0.184, -8.828e-11
0.183, -8.964e-11
0.182, -9.413e-11
0.181, -1.002e-10
0.180, -1.042e-10
0.179, -1.055e-10
0.178, -1.088e-10
0.177, -1.141e-10
0.176, -1.201e-10
0.175, -1.228e-10
0.174, -1.247e-10
0.173, -1.311e-10
0.172, -1.362e-10
0.171, -1.396e-10
0.170, -1.413e-10
0.169, -1.464e-10
0.168, -1.532e-10
0.167, -1.573e-10
0.166, -1.589e-10
0.165, -1.627e-10
0.164, -1.701e-10
0.163, -1.729e-10
0.162, -1.741e-10
0.161, -1.790e-10
0.160, -1.853e-10
0.159, -1.891e-10
0.158, -1.939e-10
0.157, -1.963e-10
0.156, -1.994e-10
0.155, -2.044e-10
0.154, -2.080e-10
0.153, -2.105e-10
0.152, -2.130e-10
0.151, -2.187e-10
0.150, -2.234e-10
0.149, -2.267e-10
0.148, -2.276e-10
0.147, -2.327e-10
0.146, -2.415e-10
0.145, -2.443e-10
0.144, -2.431e-10
0.143, -2.489e-10
0.142, -2.590e-10
0.141, -2.632e-10
0.140, -2.635e-10
0.139, -2.688e-10
0.138, -2.780e-10
0.137, -2.811e-10
0.136, -2.810e-10
0.135, -2.855e-10
0.134, -2.935e-10
0.133, -2.973e-10
0.132, -2.976e-10
0.131, -3.003e-10
0.130, -3.075e-10
0.129, -3.129e-10
0.128, -3.140e-10
0.127, -3.163e-10
0.126, -3.212e-10
0.125, -3.268e-10
0.124, -3.284e-10
0.123, -3.306e-10
0.122, -3.353e-10
0.121, -3.412e-10
0.120, -3.449e-10
0.119, -3.455e-10
0.118, -3.488e-10
0.117, -3.565e-10
0.116, -3.599e-10
0.115, -3.601e-10
0.114, -3.629e-10
0.113, -3.697e-10
0.112, -3.752e-10
0.111, -3.776e-10
0.110, -3.781e-10
0.109, -3.836e-10
0.108, -3.900e-10
0.107, -3.938e-10
0.106, -3.949e-10
0.105, -3.996e-10
0.104, -4.063e-10
0.103, -4.102e-10
0.102, -4.105e-10
0.101, -4.146e-10
0.100, -4.236e-10
0.099, -4.277e-10
0.098, -4.288e-10
0.097, -4.312e-10
0.096, -4.383e-10
0.095, -4.427e-10
0.094, -4.427e-10
0.093, -4.468e-10
0.092, -4.550e-10
0.091, -4.593e-10
0.090, -4.589e-10
0.089, -4.607e-10
0.088, -4.689e-10
0.087, -4.744e-10
0.086, -4.723e-10
0.085, -4.751e-10
0.084, -4.830e-10
0.083, -4.912e-10
0.082, -4.917e-10
0.081, -4.914e-10
0.080, -5.000e-10
0.079, -5.089e-10
0.078, -5.109e-10
0.077, -5.102e-10
0.076, -5.173e-10
0.075, -5.278e-10
0.074, -5.308e-10
0.073, -5.289e-10
0.072, -5.334e-10
0.071, -5.427e-10
0.070, -5.497e-10
0.069, -5.507e-10
0.068, -5.543e-10
0.067, -5.609e-10
0.066, -5.662e-10
0.065, -5.667e-10
0.064, -5.679e-10
0.063, -5.751e-10
0.062, -5.822e-10
0.061, -5.844e-10
0.060, -5.853e-10
0.059, -5.896e-10
0.058, -5.965e-10
0.057, -6.009e-10
0.056, -6.028e-10
0.055, -6.065e-10
0.054, -6.130e-10
0.053, -6.177e-10
0.052, -6.190e-10
0.051, -6.221e-10
0.050, -6.303e-10
0.049, -6.366e-10
0.048, -6.381e-10
0.047, -6.430e-10
0.046, -6.489e-10
0.045, -6.549e-10
0.044, -6.591e-10
0.043, -6.631e-10
0.042, -6.677e-10
0.041, -6.717e-10
0.040, -6.757e-10
0.039, -6.799e-10
0.038, -6.847e-10
0.037, -6.897e-10
0.036, -6.946e-10
0.035, -6.987e-10
0.034, -7.028e-10
0.033, -7.097e-10
0.032, -7.151e-10
0.031, -7.188e-10
0.030, -7.236e-10
0.029, -7.298e-10
0.028, -7.332e-10
0.027, -7.368e-10
0.026, -7.431e-10
0.025, -7.491e-10
0.024, -7.560e-10
0.023, -7.602e-10
0.022, -7.646e-10
0.021, -7.726e-10
0.020, -7.806e-10
0.019, -7.838e-10
0.018, -7.872e-10
0.017, -7.932e-10
0.016, -7.994e-10
0.015, -8.046e-10
0.014, -8.069e-10
0.013, -8.114e-10
0.012, -8.195e-10
0.011, -8.249e-10
0.010, -8.262e-10
0.009, -8.309e-10
0.008, -8.402e-10
0.007, -8.452e-10
0.006, -8.469e-10
0.005, -8.520e-10
0.004, -8.609e-10
0.003, -8.676e-10
0.002, -8.699e-10
0.001, -8.756e-10
-0.000, -8.841e-10
-0.001, -8.897e-10
-0.002, -8.922e-10
-0.003, -8.990e-10
-0.004, -9.080e-10
-0.005, -9.131e-10
-0.006, -9.174e-10
-0.007, -9.223e-10
-0.008, -9.294e-10
-0.009, -9.352e-10
-0.010, -9.389e-10
-0.011, -9.471e-10
-0.012, -9.548e-10
-0.013, -9.592e-10
-0.014, -9.634e-10
-0.015, -9.726e-10
-0.016, -9.835e-10
-0.017, -9.894e-10
-0.018, -9.902e-10
-0.019, -9.990e-10
-0.020, -1.012e-9
-0.021, -1.020e-9
-0.022, -1.020e-9
-0.023, -1.026e-9
-0.024, -1.040e-9
-0.025, -1.050e-9
-0.026, -1.050e-9
-0.027, -1.052e-9
-0.028, -1.065e-9
-0.029, -1.076e-9
-0.030, -1.077e-9
-0.031, -1.078e-9
-0.032, -1.089e-9
-0.033, -1.102e-9
-0.034, -1.105e-9
-0.035, -1.105e-9
-0.036, -1.114e-9
-0.037, -1.128e-9
-0.038, -1.133e-9
-0.039, -1.134e-9
-0.040, -1.142e-9
-0.041, -1.156e-9
-0.042, -1.161e-9
-0.043, -1.162e-9
-0.044, -1.169e-9
-0.045, -1.182e-9
-0.046, -1.188e-9
-0.047, -1.192e-9
-0.048, -1.200e-9
-0.049, -1.211e-9
-0.050, -1.221e-9
-0.051, -1.226e-9
-0.052, -1.235e-9
-0.053, -1.249e-9
-0.054, -1.256e-9
-0.055, -1.261e-9
-0.056, -1.271e-9
-0.057, -1.283e-9
-0.058, -1.290e-9
-0.059, -1.293e-9
-0.060, -1.302e-9
-0.061, -1.312e-9
-0.062, -1.319e-9
-0.063, -1.322e-9
-0.064, -1.331e-9
-0.065, -1.343e-9
-0.066, -1.352e-9
-0.067, -1.354e-9
-0.068, -1.362e-9
-0.069, -1.376e-9
-0.070, -1.387e-9
-0.071, -1.389e-9
-0.072, -1.395e-9
-0.073, -1.409e-9
-0.074, -1.422e-9
-0.075, -1.425e-9
-0.076, -1.430e-9
-0.077, -1.442e-9
-0.078, -1.456e-9
-0.079, -1.462e-9
-0.080, -1.465e-9
-0.081, -1.480e-9
-0.082, -1.496e-9
-0.083, -1.503e-9
-0.084, -1.508e-9
-0.085, -1.517e-9
-0.086, -1.531e-9
-0.087, -1.541e-9
-0.088, -1.548e-9
-0.089, -1.556e-9
-0.090, -1.565e-9
-0.091, -1.574e-9
-0.092, -1.583e-9
-0.093, -1.591e-9
-0.094, -1.601e-9
-0.095, -1.610e-9
-0.096, -1.620e-9
-0.097, -1.630e-9
-0.098, -1.637e-9
-0.099, -1.645e-9
-0.100, -1.657e-9
-0.101, -1.668e-9
-0.102, -1.674e-9
-0.103, -1.682e-9
-0.104, -1.694e-9
-0.105, -1.708e-9
-0.106, -1.714e-9
-0.107, -1.720e-9
-0.108, -1.735e-9
-0.109, -1.751e-9
-0.110, -1.758e-9
-0.111, -1.763e-9
-0.112, -1.775e-9
-0.113, -1.789e-9
-0.114, -1.797e-9
-0.115, -1.802e-9
-0.116, -1.813e-9
-0.117, -1.826e-9
-0.118, -1.836e-9
-0.119, -1.843e-9
-0.120, -1.854e-9
-0.121, -1.867e-9
-0.122, -1.880e-9
-0.123, -1.890e-9
-0.124, -1.898e-9
-0.125, -1.909e-9
-0.126, -1.921e-9
-0.127, -1.931e-9
-0.128, -1.939e-9
-0.129, -1.949e-9
-0.130, -1.961e-9
-0.131, -1.977e-9
-0.132, -1.985e-9
-0.133, -1.992e-9
-0.134, -2.005e-9
-0.135, -2.022e-9
-0.136, -2.032e-9
-0.137, -2.037e-9
-0.138, -2.048e-9
-0.139, -2.064e-9
-0.140, -2.075e-9
-0.141, -2.080e-9
-0.142, -2.090e-9
-0.143, -2.108e-9
-0.144, -2.120e-9
-0.145, -2.132e-9
-0.146, -2.138e-9
-0.147, -2.147e-9
-0.148, -2.165e-9
-0.149, -2.172e-9
-0.150, -2.179e-9
-0.151, -2.196e-9
-0.152, -2.211e-9
-0.153, -2.220e-9
-0.154, -2.230e-9
-0.155, -2.244e-9
-0.156, -2.257e-9
-0.157, -2.267e-9
-0.158, -2.276e-9
-0.159, -2.288e-9
-0.160, -2.301e-9
-0.161, -2.310e-9
-0.162, -2.320e-9
-0.163, -2.336e-9
-0.164, -2.350e-9
-0.165, -2.359e-9
-0.166, -2.371e-9
-0.167, -2.383e-9
-0.168, -2.396e-9
-0.169, -2.406e-9
-0.170, -2.414e-9
-0.171, -2.427e-9
-0.172, -2.441e-9
-0.173, -2.451e-9
-0.174, -2.460e-9
-0.175, -2.474e-9
-0.176, -2.490e-9
-0.177, -2.503e-9
-0.178, -2.511e-9
-0.179, -2.521e-9
-0.180, -2.536e-9
-0.181, -2.549e-9
-0.182, -2.557e-9
-0.183, -2.567e-9
-0.184, -2.582e-9
-0.185, -2.596e-9
-0.186, -2.604e-9
-0.187, -2.613e-9
-0.188, -2.627e-9
-0.189, -2.642e-9
-0.190, -2.652e-9
-0.191, -2.661e-9
-0.192, -2.673e-9
-0.193, -2.687e-9
-0.194, -2.698e-9
-0.195, -2.707e-9
-0.196, -2.722e-9
-0.197, -2.736e-9
-0.198, -2.747e-9
-0.199, -2.757e-9
-0.200, -2.768e-9
-0.201, -2.780e-9
-0.202, -2.790e-9
-0.203, -2.802e-9
-0.204, -2.815e-9
-0.205, -2.824e-9
-0.206, -2.838e-9
-0.207, -2.852e-9
-0.208, -2.865e-9
-0.209, -2.875e-9
-0.210, -2.886e-9
-0.211, -2.899e-9
-0.212, -2.912e-9
-0.213, -2.922e-9
-0.214, -2.932e-9
-0.215, -2.943e-9
-0.216, -2.958e-9
-0.217, -2.968e-9
-0.218, -2.979e-9
-0.219, -2.994e-9
-0.220, -3.008e-9
-0.221, -3.019e-9
-0.222, -3.027e-9
-0.223, -3.042e-9
-0.224, -3.057e-9
-0.225, -3.067e-9
-0.226, -3.073e-9
-0.227, -3.085e-9
-0.228, -3.102e-9
-0.229, -3.113e-9
-0.230, -3.119e-9
-0.231, -3.132e-9
-0.232, -3.148e-9
-0.233, -3.160e-9
-0.234, -3.167e-9
-0.235, -3.179e-9
-0.236, -3.194e-9
-0.237, -3.207e-9
-0.238, -3.217e-9
-0.239, -3.231e-9
-0.240, -3.244e-9
-0.241, -3.254e-9
-0.242, -3.262e-9
-0.243, -3.274e-9
-0.244, -3.286e-9
-0.245, -3.300e-9
-0.246, -3.311e-9
-0.247, -3.323e-9
-0.248, -3.338e-9
-0.249, -3.348e-9
-0.250, -3.355e-9
-0.251, -3.366e-9
-0.252, -3.380e-9
-0.253, -3.391e-9
-0.254, -3.402e-9
-0.255, -3.415e-9
-0.256, -3.430e-9
-0.257, -3.445e-9
-0.258, -3.455e-9
-0.259, -3.465e-9
-0.260, -3.475e-9
-0.261, -3.487e-9
-0.262, -3.496e-9
-0.263, -3.506e-9
-0.264, -3.515e-9
-0.265, -3.527e-9
-0.266, -3.537e-9
-0.267, -3.550e-9
-0.268, -3.561e-9
-0.269, -3.575e-9
-0.270, -3.588e-9
-0.271, -3.600e-9
-0.272, -3.614e-9
-0.273, -3.629e-9
-0.274, -3.641e-9
-0.275, -3.652e-9
-0.276, -3.662e-9
-0.277, -3.677e-9
-0.278, -3.690e-9
-0.279, -3.702e-9
-0.280, -3.715e-9
-0.281, -3.726e-9
-0.282, -3.735e-9
-0.283, -3.747e-9
-0.284, -3.758e-9
-0.285, -3.765e-9
-0.286, -3.778e-9
-0.287, -3.792e-9
-0.288, -3.804e-9
-0.289, -3.813e-9
-0.290, -3.825e-9
-0.291, -3.842e-9
-0.292, -3.856e-9
-0.293, -3.867e-9
-0.294, -3.878e-9
-0.295, -3.891e-9
-0.296, -3.903e-9
-0.297, -3.910e-9
-0.298, -3.921e-9
-0.299, -3.937e-9
-0.300, -3.953e-9
-0.301, -3.964e-9
-0.302, -3.973e-9
-0.303, -3.986e-9
-0.304, -3.998e-9
-0.305, -4.008e-9
-0.306, -4.021e-9
-0.307, -4.039e-9
-0.308, -4.052e-9
-0.309, -4.065e-9
-0.310, -4.076e-9
-0.311, -4.089e-9
-0.312, -4.104e-9
-0.313, -4.115e-9
-0.314, -4.126e-9
-0.315, -4.141e-9
-0.316, -4.156e-9
-0.317, -4.166e-9
-0.318, -4.176e-9
-0.319, -4.190e-9
-0.320, -4.208e-9
-0.321, -4.217e-9
-0.322, -4.225e-9
-0.323, -4.236e-9
-0.324, -4.248e-9
-0.325, -4.261e-9
-0.326, -4.274e-9
-0.327, -4.284e-9
-0.328, -4.298e-9
-0.329, -4.312e-9
-0.330, -4.326e-9
-0.331, -4.338e-9
-0.332, -4.348e-9
-0.333, -4.360e-9
-0.334, -4.375e-9
-0.335, -4.385e-9
-0.336, -4.398e-9
-0.337, -4.414e-9
-0.338, -4.427e-9
-0.339, -4.437e-9
-0.340, -4.452e-9
-0.341, -4.466e-9
-0.342, -4.479e-9
-0.343, -4.490e-9
-0.344, -4.502e-9
-0.345, -4.517e-9
-0.346, -4.524e-9
-0.347, -4.532e-9
-0.348, -4.548e-9
-0.349, -4.566e-9
-0.350, -4.576e-9
-0.351, -4.589e-9
-0.352, -4.605e-9
-0.353, -4.620e-9
-0.354, -4.633e-9
-0.355, -4.647e-9
-0.356, -4.665e-9
-0.357, -4.687e-9
-0.358, -4.700e-9
-0.359, -4.710e-9
-0.360, -4.726e-9
-0.361, -4.744e-9
-0.362, -4.759e-9
-0.363, -4.771e-9
-0.364, -4.784e-9
-0.365, -4.804e-9
-0.366, -4.822e-9
-0.367, -4.832e-9
-0.368, -4.844e-9
-0.369, -4.864e-9
-0.370, -4.881e-9
-0.371, -4.896e-9
-0.372, -4.910e-9
-0.373, -4.929e-9
-0.374, -4.948e-9
-0.375, -4.961e-9
-0.376, -4.969e-9
-0.377, -4.984e-9
-0.378, -5.006e-9
-0.379, -5.018e-9
-0.380, -5.026e-9
-0.381, -5.042e-9
-0.382, -5.063e-9
-0.383, -5.079e-9
-0.384, -5.094e-9
-0.385, -5.107e-9
-0.386, -5.128e-9
-0.387, -5.143e-9
-0.388, -5.158e-9
-0.389, -5.170e-9
-0.390, -5.189e-9
-0.391, -5.207e-9
-0.392, -5.214e-9
-0.393, -5.223e-9
-0.394, -5.241e-9
-0.395, -5.265e-9
-0.396, -5.278e-9
-0.397, -5.287e-9
-0.398, -5.301e-9
-0.399, -5.318e-9
-0.400, -5.329e-9
-0.401, -5.342e-9
-0.402, -5.358e-9
-0.403, -5.376e-9
-0.404, -5.393e-9
-0.405, -5.401e-9
-0.406, -5.416e-9
-0.407, -5.436e-9
-0.408, -5.453e-9
-0.409, -5.469e-9
-0.410, -5.483e-9
-0.411, -5.497e-9
-0.412, -5.513e-9
-0.413, -5.530e-9
-0.414, -5.540e-9
-0.415, -5.554e-9
-0.416, -5.572e-9
-0.417, -5.585e-9
-0.418, -5.594e-9
-0.419, -5.613e-9
-0.420, -5.634e-9
-0.421, -5.652e-9
-0.422, -5.663e-9
-0.423, -5.674e-9
-0.424, -5.693e-9
-0.425, -5.707e-9
-0.426, -5.714e-9
-0.427, -5.727e-9
-0.428, -5.747e-9
-0.429, -5.764e-9
-0.430, -5.776e-9
-0.431, -5.784e-9
-0.432, -5.804e-9
-0.433, -5.823e-9
-0.434, -5.837e-9
-0.435, -5.847e-9
-0.436, -5.865e-9
-0.437, -5.888e-9
-0.438, -5.901e-9
-0.439, -5.912e-9
-0.440, -5.929e-9
-0.441, -5.946e-9
-0.442, -5.960e-9
-0.443, -5.972e-9
-0.444, -5.987e-9
-0.445, -6.003e-9
-0.446, -6.016e-9
-0.447, -6.032e-9
-0.448, -6.042e-9
-0.449, -6.058e-9
-0.450, -6.078e-9
-0.451, -6.095e-9
-0.452, -6.111e-9
-0.453, -6.125e-9
-0.454, -6.148e-9
-0.455, -6.159e-9
-0.456, -6.167e-9
-0.457, -6.184e-9
-0.458, -6.199e-9
-0.459, -6.213e-9
-0.460, -6.223e-9
-0.461, -6.238e-9
-0.462, -6.252e-9
-0.463, -6.267e-9
-0.464, -6.276e-9
-0.465, -6.289e-9
-0.466, -6.312e-9
-0.467, -6.325e-9
-0.468, -6.339e-9
-0.469, -6.358e-9
-0.470, -6.371e-9
-0.471, -6.384e-9
-0.472, -6.406e-9
-0.473, -6.425e-9
-0.474, -6.436e-9
-0.475, -6.452e-9
-0.476, -6.476e-9
-0.477, -6.492e-9
-0.478, -6.503e-9
-0.479, -6.515e-9
-0.480, -6.531e-9
-0.481, -6.548e-9
-0.482, -6.559e-9
-0.483, -6.570e-9
-0.484, -6.590e-9
-0.485, -6.611e-9
-0.486, -6.628e-9
-0.487, -6.638e-9
-0.488, -6.656e-9
-0.489, -6.671e-9
-0.490, -6.682e-9
-0.491, -6.694e-9
-0.492, -6.708e-9
-0.493, -6.723e-9
-0.494, -6.739e-9
-0.495, -6.751e-9
-0.496, -6.763e-9
-0.497, -6.776e-9
-0.498, -6.791e-9
-0.499, -6.803e-9
