Mar. 6, 2025   16:10:55
Cyclic Voltammetry
File: cv surface (incubation) (6).bin
Data Source:  Experiment
Instrument Model:  CHI920C
Ref. Electrode: 
Header: 
Note: 

Init E (V) = -0.5
High E (V) = 0.5
Low E (V) = -0.5
Init P/N = P
Scan Rate (V/s) = 0.05
Segment = 2
Sample Interval (V) = 0.001
Quiet Time (sec) = 10
Sensitivity (A/V) = 1e-7

Results:

Channel 1:
Segment 1:

Segment 2:

Potential/V, Current/A

-0.500, -4.896e-9
-0.499, -4.842e-9
-0.498, -4.787e-9
-0.497, -4.749e-9
-0.496, -4.720e-9
-0.495, -4.692e-9
-0.494, -4.653e-9
-0.493, -4.616e-9
-0.492, -4.590e-9
-0.491, -4.563e-9
-0.490, -4.535e-9
-0.489, -4.504e-9
-0.488, -4.480e-9
-0.487, -4.454e-9
-0.486, -4.423e-9
-0.485, -4.392e-9
-0.484, -4.369e-9
-0.483, -4.347e-9
-0.482, -4.317e-9
-0.481, -4.291e-9
-0.480, -4.269e-9
-0.479, -4.241e-9
-0.478, -4.214e-9
-0.477, -4.190e-9
-0.476, -4.169e-9
-0.475, -4.139e-9
-0.474, -4.111e-9
-0.473, -4.085e-9
-0.472, -4.061e-9
-0.471, -4.037e-9
-0.470, -4.014e-9
-0.469, -3.991e-9
-0.468, -3.974e-9
-0.467, -3.950e-9
-0.466, -3.923e-9
-0.465, -3.900e-9
-0.464, -3.883e-9
-0.463, -3.858e-9
-0.462, -3.825e-9
-0.461, -3.799e-9
-0.460, -3.784e-9
-0.459, -3.765e-9
-0.458, -3.741e-9
-0.457, -3.722e-9
-0.456, -3.702e-9
-0.455, -3.680e-9
-0.454, -3.650e-9
-0.453, -3.624e-9
-0.452, -3.604e-9
-0.451, -3.585e-9
-0.450, -3.563e-9
-0.449, -3.537e-9
-0.448, -3.519e-9
-0.447, -3.505e-9
-0.446, -3.483e-9
-0.445, -3.460e-9
-0.444, -3.439e-9
-0.443, -3.422e-9
-0.442, -3.405e-9
-0.441, -3.380e-9
-0.440, -3.357e-9
-0.439, -3.341e-9
-0.438, -3.325e-9
-0.437, -3.299e-9
-0.436, -3.277e-9
-0.435, -3.263e-9
-0.434, -3.245e-9
-0.433, -3.223e-9
-0.432, -3.201e-9
-0.431, -3.185e-9
-0.430, -3.167e-9
-0.429, -3.146e-9
-0.428, -3.125e-9
-0.427, -3.111e-9
-0.426, -3.095e-9
-0.425, -3.075e-9
-0.424, -3.052e-9
-0.423, -3.035e-9
-0.422, -3.020e-9
-0.421, -3.000e-9
-0.420, -2.977e-9
-0.419, -2.960e-9
-0.418, -2.944e-9
-0.417, -2.927e-9
-0.416, -2.907e-9
-0.415, -2.890e-9
-0.414, -2.876e-9
-0.413, -2.859e-9
-0.412, -2.836e-9
-0.411, -2.816e-9
-0.410, -2.803e-9
-0.409, -2.785e-9
-0.408, -2.766e-9
-0.407, -2.749e-9
-0.406, -2.736e-9
-0.405, -2.723e-9
-0.404, -2.699e-9
-0.403, -2.674e-9
-0.402, -2.662e-9
-0.401, -2.651e-9
-0.400, -2.630e-9
-0.399, -2.606e-9
-0.398, -2.593e-9
-0.397, -2.584e-9
-0.396, -2.563e-9
-0.395, -2.539e-9
-0.394, -2.525e-9
-0.393, -2.514e-9
-0.392, -2.496e-9
-0.391, -2.468e-9
-0.390, -2.449e-9
-0.389, -2.441e-9
-0.388, -2.425e-9
-0.387, -2.402e-9
-0.386, -2.383e-9
-0.385, -2.374e-9
-0.384, -2.360e-9
-0.383, -2.336e-9
-0.382, -2.315e-9
-0.381, -2.303e-9
-0.380, -2.295e-9
-0.379, -2.277e-9
-0.378, -2.257e-9
-0.377, -2.243e-9
-0.376, -2.233e-9
-0.375, -2.217e-9
-0.374, -2.195e-9
-0.373, -2.179e-9
-0.372, -2.170e-9
-0.371, -2.160e-9
-0.370, -2.141e-9
-0.369, -2.123e-9
-0.368, -2.113e-9
-0.367, -2.101e-9
-0.366, -2.083e-9
-0.365, -2.064e-9
-0.364, -2.051e-9
-0.363, -2.042e-9
-0.362, -2.029e-9
-0.361, -2.012e-9
-0.360, -1.998e-9
-0.359, -1.986e-9
-0.358, -1.973e-9
-0.357, -1.956e-9
-0.356, -1.939e-9
-0.355, -1.929e-9
-0.354, -1.918e-9
-0.353, -1.905e-9
-0.352, -1.889e-9
-0.351, -1.875e-9
-0.350, -1.863e-9
-0.349, -1.852e-9
-0.348, -1.837e-9
-0.347, -1.821e-9
-0.346, -1.810e-9
-0.345, -1.801e-9
-0.344, -1.789e-9
-0.343, -1.775e-9
-0.342, -1.762e-9
-0.341, -1.753e-9
-0.340, -1.743e-9
-0.339, -1.727e-9
-0.338, -1.713e-9
-0.337, -1.703e-9
-0.336, -1.694e-9
-0.335, -1.680e-9
-0.334, -1.665e-9
-0.333, -1.654e-9
-0.332, -1.647e-9
-0.331, -1.636e-9
-0.330, -1.622e-9
-0.329, -1.609e-9
-0.328, -1.603e-9
-0.327, -1.595e-9
-0.326, -1.581e-9
-0.325, -1.565e-9
-0.324, -1.557e-9
-0.323, -1.552e-9
-0.322, -1.539e-9
-0.321, -1.523e-9
-0.320, -1.514e-9
-0.319, -1.508e-9
-0.318, -1.496e-9
-0.317, -1.478e-9
-0.316, -1.466e-9
-0.315, -1.459e-9
-0.314, -1.449e-9
-0.313, -1.434e-9
-0.312, -1.423e-9
-0.311, -1.417e-9
-0.310, -1.408e-9
-0.309, -1.396e-9
-0.308, -1.382e-9
-0.307, -1.373e-9
-0.306, -1.365e-9
-0.305, -1.353e-9
-0.304, -1.340e-9
-0.303, -1.333e-9
-0.302, -1.326e-9
-0.301, -1.316e-9
-0.300, -1.303e-9
-0.299, -1.295e-9
-0.298, -1.290e-9
-0.297, -1.279e-9
-0.296, -1.265e-9
-0.295, -1.254e-9
-0.294, -1.247e-9
-0.293, -1.238e-9
-0.292, -1.226e-9
-0.291, -1.213e-9
-0.290, -1.207e-9
-0.289, -1.201e-9
-0.288, -1.188e-9
-0.287, -1.175e-9
-0.286, -1.169e-9
-0.285, -1.164e-9
-0.284, -1.154e-9
-0.283, -1.140e-9
-0.282, -1.131e-9
-0.281, -1.127e-9
-0.280, -1.117e-9
-0.279, -1.105e-9
-0.278, -1.096e-9
-0.277, -1.092e-9
-0.276, -1.085e-9
-0.275, -1.074e-9
-0.274, -1.064e-9
-0.273, -1.058e-9
-0.272, -1.053e-9
-0.271, -1.043e-9
-0.270, -1.032e-9
-0.269, -1.022e-9
-0.268, -1.016e-9
-0.267, -1.006e-9
-0.266, -9.933e-10
-0.265, -9.840e-10
-0.264, -9.753e-10
-0.263, -9.690e-10
-0.262, -9.597e-10
-0.261, -9.481e-10
-0.260, -9.410e-10
-0.259, -9.367e-10
-0.258, -9.282e-10
-0.257, -9.183e-10
-0.256, -9.110e-10
-0.255, -9.045e-10
-0.254, -8.964e-10
-0.253, -8.857e-10
-0.252, -8.782e-10
-0.251, -8.716e-10
-0.250, -8.660e-10
-0.249, -8.567e-10
-0.248, -8.480e-10
-0.247, -8.414e-10
-0.246, -8.365e-10
-0.245, -8.273e-10
-0.244, -8.194e-10
-0.243, -8.134e-10
-0.242, -8.080e-10
-0.241, -8.016e-10
-0.240, -7.917e-10
-0.239, -7.828e-10
-0.238, -7.776e-10
-0.237, -7.706e-10
-0.236, -7.606e-10
-0.235, -7.511e-10
-0.234, -7.464e-10
-0.233, -7.418e-10
-0.232, -7.314e-10
-0.231, -7.218e-10
-0.230, -7.186e-10
-0.229, -7.154e-10
-0.228, -7.048e-10
-0.227, -6.926e-10
-0.226, -6.885e-10
-0.225, -6.855e-10
-0.224, -6.772e-10
-0.223, -6.653e-10
-0.222, -6.586e-10
-0.221, -6.562e-10
-0.220, -6.500e-10
-0.219, -6.387e-10
-0.218, -6.310e-10
-0.217, -6.289e-10
-0.216, -6.231e-10
-0.215, -6.142e-10
-0.214, -6.056e-10
-0.213, -6.011e-10
-0.212, -5.984e-10
-0.211, -5.901e-10
-0.210, -5.811e-10
-0.209, -5.768e-10
-0.208, -5.733e-10
-0.207, -5.676e-10
-0.206, -5.593e-10
-0.205, -5.512e-10
-0.204, -5.468e-10
-0.203, -5.400e-10
-0.202, -5.313e-10
-0.201, -5.210e-10
-0.200, -5.164e-10
-0.199, -5.128e-10
-0.198, -5.035e-10
-0.197, -4.930e-10
-0.196, -4.885e-10
-0.195, -4.848e-10
-0.194, -4.782e-10
-0.193, -4.690e-10
-0.192, -4.616e-10
-0.191, -4.575e-10
-0.190, -4.521e-10
-0.189, -4.439e-10
-0.188, -4.395e-10
-0.187, -4.339e-10
-0.186, -4.277e-10
-0.185, -4.216e-10
-0.184, -4.159e-10
-0.183, -4.090e-10
-0.182, -4.032e-10
-0.181, -3.983e-10
-0.180, -3.925e-10
-0.179, -3.881e-10
-0.178, -3.815e-10
-0.177, -3.721e-10
-0.176, -3.681e-10
-0.175, -3.618e-10
-0.174, -3.563e-10
-0.173, -3.511e-10
-0.172, -3.458e-10
-0.171, -3.422e-10
-0.170, -3.363e-10
-0.169, -3.306e-10
-0.168, -3.261e-10
-0.167, -3.235e-10
-0.166, -3.180e-10
-0.165, -3.098e-10
-0.164, -3.041e-10
-0.163, -3.025e-10
-0.162, -2.953e-10
-0.161, -2.866e-10
-0.160, -2.801e-10
-0.159, -2.782e-10
-0.158, -2.715e-10
-0.157, -2.608e-10
-0.156, -2.543e-10
-0.155, -2.523e-10
-0.154, -2.473e-10
-0.153, -2.384e-10
-0.152, -2.326e-10
-0.151, -2.306e-10
-0.150, -2.261e-10
-0.149, -2.175e-10
-0.148, -2.096e-10
-0.147, -2.078e-10
-0.146, -2.061e-10
-0.145, -1.974e-10
-0.144, -1.900e-10
-0.143, -1.851e-10
-0.142, -1.838e-10
-0.141, -1.789e-10
-0.140, -1.703e-10
-0.139, -1.660e-10
-0.138, -1.649e-10
-0.137, -1.586e-10
-0.136, -1.497e-10
-0.135, -1.435e-10
-0.134, -1.433e-10
-0.133, -1.397e-10
-0.132, -1.311e-10
-0.131, -1.253e-10
-0.130, -1.235e-10
-0.129, -1.203e-10
-0.128, -1.129e-10
-0.127, -1.072e-10
-0.126, -1.056e-10
-0.125, -1.020e-10
-0.124, -9.296e-11
-0.123, -8.740e-11
-0.122, -8.643e-11
-0.121, -8.526e-11
-0.120, -7.736e-11
-0.119, -6.878e-11
-0.118, -6.800e-11
-0.117, -6.576e-11
-0.116, -5.777e-11
-0.115, -4.948e-11
-0.114, -4.870e-11
-0.113, -4.587e-11
-0.112, -3.808e-11
-0.111, -2.882e-11
-0.110, -2.726e-11
-0.109, -2.706e-11
-0.108, -2.053e-11
-0.107, -1.010e-11
-0.106, -8.344e-12
-0.105, -7.370e-12
-0.104, 3.901e-14
-0.103, 9.300e-12
-0.102, 1.408e-11
-0.101, 1.242e-11
-0.100, 1.622e-11
-0.099, 2.607e-11
-0.098, 3.182e-11
-0.097, 2.948e-11
-0.096, 3.348e-11
-0.095, 4.322e-11
-0.094, 4.966e-11
-0.093, 5.014e-11
-0.092, 5.034e-11
-0.091, 5.843e-11
-0.090, 6.574e-11
-0.089, 6.603e-11
-0.088, 6.623e-11
-0.087, 7.374e-11
-0.086, 8.270e-11
-0.085, 8.348e-11
-0.084, 8.202e-11
-0.083, 8.894e-11
-0.082, 9.869e-11
-0.081, 1.008e-10
-0.080, 9.898e-11
-0.079, 1.035e-10
-0.078, 1.146e-10
-0.077, 1.185e-10
-0.076, 1.177e-10
-0.075, 1.209e-10
-0.074, 1.314e-10
-0.073, 1.349e-10
-0.072, 1.345e-10
-0.071, 1.357e-10
-0.070, 1.479e-10
-0.069, 1.545e-10
-0.068, 1.513e-10
-0.067, 1.510e-10
-0.066, 1.573e-10
-0.065, 1.625e-10
-0.064, 1.617e-10
-0.063, 1.607e-10
-0.062, 1.659e-10
-0.061, 1.738e-10
-0.060, 1.760e-10
-0.059, 1.756e-10
-0.058, 1.813e-10
-0.057, 1.894e-10
-0.056, 1.931e-10
-0.055, 1.917e-10
-0.054, 1.942e-10
-0.053, 2.042e-10
-0.052, 2.086e-10
-0.051, 2.067e-10
-0.050, 2.096e-10
-0.049, 2.184e-10
-0.048, 2.228e-10
-0.047, 2.250e-10
-0.046, 2.278e-10
-0.045, 2.349e-10
-0.044, 2.380e-10
-0.043, 2.389e-10
-0.042, 2.420e-10
-0.041, 2.483e-10
-0.040, 2.529e-10
-0.039, 2.541e-10
-0.038, 2.572e-10
-0.037, 2.617e-10
-0.036, 2.649e-10
-0.035, 2.654e-10
-0.034, 2.671e-10
-0.033, 2.727e-10
-0.032, 2.786e-10
-0.031, 2.800e-10
-0.030, 2.823e-10
-0.029, 2.881e-10
-0.028, 2.934e-10
-0.027, 2.938e-10
-0.026, 2.965e-10
-0.025, 3.017e-10
-0.024, 3.064e-10
-0.023, 3.071e-10
-0.022, 3.074e-10
-0.021, 3.132e-10
-0.020, 3.201e-10
-0.019, 3.209e-10
-0.018, 3.220e-10
-0.017, 3.272e-10
-0.016, 3.308e-10
-0.015, 3.329e-10
-0.014, 3.338e-10
-0.013, 3.381e-10
-0.012, 3.440e-10
-0.011, 3.463e-10
-0.010, 3.482e-10
-0.009, 3.518e-10
-0.008, 3.576e-10
-0.007, 3.583e-10
-0.006, 3.598e-10
-0.005, 3.642e-10
-0.004, 3.700e-10
-0.003, 3.694e-10
-0.002, 3.712e-10
-0.001, 3.769e-10
0.000, 3.792e-10
0.001, 3.813e-10
0.002, 3.823e-10
0.003, 3.872e-10
0.004, 3.922e-10
0.005, 3.944e-10
0.006, 3.954e-10
0.007, 3.985e-10
0.008, 4.033e-10
0.009, 4.078e-10
0.010, 4.116e-10
0.011, 4.112e-10
0.012, 4.151e-10
0.013, 4.175e-10
0.014, 4.177e-10
0.015, 4.194e-10
0.016, 4.227e-10
0.017, 4.286e-10
0.018, 4.286e-10
0.019, 4.281e-10
0.020, 4.322e-10
0.021, 4.381e-10
0.022, 4.393e-10
0.023, 4.382e-10
0.024, 4.441e-10
0.025, 4.511e-10
0.026, 4.524e-10
0.027, 4.535e-10
0.028, 4.591e-10
0.029, 4.639e-10
0.030, 4.665e-10
0.031, 4.666e-10
0.032, 4.686e-10
0.033, 4.734e-10
0.034, 4.746e-10
0.035, 4.774e-10
0.036, 4.823e-10
0.037, 4.914e-10
0.038, 4.940e-10
0.039, 4.938e-10
0.040, 4.948e-10
0.041, 5.004e-10
0.042, 5.035e-10
0.043, 5.030e-10
0.044, 5.038e-10
0.045, 5.091e-10
0.046, 5.113e-10
0.047, 5.102e-10
0.048, 5.088e-10
0.049, 5.124e-10
0.050, 5.196e-10
0.051, 5.201e-10
0.052, 5.202e-10
0.053, 5.247e-10
0.054, 5.309e-10
0.055, 5.302e-10
0.056, 5.301e-10
0.057, 5.313e-10
0.058, 5.369e-10
0.059, 5.417e-10
0.060, 5.414e-10
0.061, 5.412e-10
0.062, 5.454e-10
0.063, 5.508e-10
0.064, 5.509e-10
0.065, 5.493e-10
0.066, 5.503e-10
0.067, 5.563e-10
0.068, 5.580e-10
0.069, 5.572e-10
0.070, 5.600e-10
0.071, 5.640e-10
0.072, 5.695e-10
0.073, 5.720e-10
0.074, 5.727e-10
0.075, 5.768e-10
0.076, 5.803e-10
0.077, 5.809e-10
0.078, 5.839e-10
0.079, 5.893e-10
0.080, 5.901e-10
0.081, 5.905e-10
0.082, 5.905e-10
0.083, 5.922e-10
0.084, 5.972e-10
0.085, 5.989e-10
0.086, 6.035e-10
0.087, 6.202e-10
0.088, 6.186e-10
0.089, 6.136e-10
0.090, 6.139e-10
0.091, 6.155e-10
0.092, 6.180e-10
0.093, 6.180e-10
0.094, 6.208e-10
0.095, 6.244e-10
0.096, 6.289e-10
0.097, 6.304e-10
0.098, 6.281e-10
0.099, 6.282e-10
0.100, 6.339e-10
0.101, 6.409e-10
0.102, 6.474e-10
0.103, 6.542e-10
0.104, 6.603e-10
0.105, 6.729e-10
0.106, 6.731e-10
0.107, 6.760e-10
0.108, 6.781e-10
0.109, 6.821e-10
0.110, 6.822e-10
0.111, 6.829e-10
0.112, 7.035e-10
0.113, 7.214e-10
0.114, 7.263e-10
0.115, 7.314e-10
0.116, 7.397e-10
0.117, 7.453e-10
0.118, 7.474e-10
0.119, 7.489e-10
0.120, 7.514e-10
0.121, 7.551e-10
0.122, 7.499e-10
0.123, 7.595e-10
0.124, 7.806e-10
0.125, 7.826e-10
0.126, 7.758e-10
0.127, 7.764e-10
0.128, 7.848e-10
0.129, 7.914e-10
0.130, 7.911e-10
0.131, 7.920e-10
0.132, 7.990e-10
0.133, 8.038e-10
0.134, 8.073e-10
0.135, 8.084e-10
0.136, 8.021e-10
0.137, 7.986e-10
0.138, 8.011e-10
0.139, 8.067e-10
0.140, 8.214e-10
0.141, 8.336e-10
0.142, 8.444e-10
0.143, 8.527e-10
0.144, 8.560e-10
0.145, 8.552e-10
0.146, 8.604e-10
0.147, 8.679e-10
0.148, 8.750e-10
0.149, 8.756e-10
0.150, 8.768e-10
0.151, 8.847e-10
0.152, 8.886e-10
0.153, 9.259e-10
0.154, 9.498e-10
0.155, 9.666e-10
0.156, 9.931e-10
0.157, 1.001e-9
0.158, 1.002e-9
0.159, 1.008e-9
0.160, 1.009e-9
0.161, 1.009e-9
0.162, 1.012e-9
0.163, 1.016e-9
0.164, 1.027e-9
0.165, 1.042e-9
0.166, 1.050e-9
0.167, 1.055e-9
0.168, 1.057e-9
0.169, 1.055e-9
0.170, 1.066e-9
0.171, 1.071e-9
0.172, 1.068e-9
0.173, 1.067e-9
0.174, 1.071e-9
0.175, 1.082e-9
0.176, 1.090e-9
0.177, 1.101e-9
0.178, 1.105e-9
0.179, 1.105e-9
0.180, 1.108e-9
0.181, 1.117e-9
0.182, 1.123e-9
0.183, 1.132e-9
0.184, 1.149e-9
0.185, 1.162e-9
0.186, 1.165e-9
0.187, 1.158e-9
0.188, 1.152e-9
0.189, 1.167e-9
0.190, 1.179e-9
0.191, 1.181e-9
0.192, 1.187e-9
0.193, 1.202e-9
0.194, 1.226e-9
0.195, 1.234e-9
0.196, 1.242e-9
0.197, 1.251e-9
0.198, 1.254e-9
0.199, 1.255e-9
0.200, 1.245e-9
0.201, 1.249e-9
0.202, 1.267e-9
0.203, 1.275e-9
0.204, 1.271e-9
0.205, 1.259e-9
0.206, 1.278e-9
0.207, 1.291e-9
0.208, 1.283e-9
0.209, 1.279e-9
0.210, 1.300e-9
0.211, 1.318e-9
0.212, 1.314e-9
0.213, 1.310e-9
0.214, 1.322e-9
0.215, 1.340e-9
0.216, 1.341e-9
0.217, 1.341e-9
0.218, 1.343e-9
0.219, 1.356e-9
0.220, 1.354e-9
0.221, 1.351e-9
0.222, 1.356e-9
0.223, 1.373e-9
0.224, 1.385e-9
0.225, 1.386e-9
0.226, 1.392e-9
0.227, 1.401e-9
0.228, 1.404e-9
0.229, 1.400e-9
0.230, 1.399e-9
0.231, 1.410e-9
0.232, 1.420e-9
0.233, 1.419e-9
0.234, 1.422e-9
0.235, 1.420e-9
0.236, 1.435e-9
0.237, 1.434e-9
0.238, 1.431e-9
0.239, 1.437e-9
0.240, 1.440e-9
0.241, 1.443e-9
0.242, 1.443e-9
0.243, 1.444e-9
0.244, 1.453e-9
0.245, 1.452e-9
0.246, 1.458e-9
0.247, 1.461e-9
0.248, 1.470e-9
0.249, 1.472e-9
0.250, 1.471e-9
0.251, 1.471e-9
0.252, 1.473e-9
0.253, 1.480e-9
0.254, 1.486e-9
0.255, 1.490e-9
0.256, 1.493e-9
0.257, 1.500e-9
0.258, 1.509e-9
0.259, 1.511e-9
0.260, 1.509e-9
0.261, 1.516e-9
0.262, 1.521e-9
0.263, 1.525e-9
0.264, 1.530e-9
0.265, 1.536e-9
0.266, 1.537e-9
0.267, 1.543e-9
0.268, 1.545e-9
0.269, 1.548e-9
0.270, 1.553e-9
0.271, 1.556e-9
0.272, 1.559e-9
0.273, 1.566e-9
0.274, 1.573e-9
0.275, 1.578e-9
0.276, 1.590e-9
0.277, 1.595e-9
0.278, 1.598e-9
0.279, 1.607e-9
0.280, 1.617e-9
0.281, 1.621e-9
0.282, 1.630e-9
0.283, 1.636e-9
0.284, 1.640e-9
0.285, 1.646e-9
0.286, 1.649e-9
0.287, 1.655e-9
0.288, 1.665e-9
0.289, 1.677e-9
0.290, 1.678e-9
0.291, 1.688e-9
0.292, 1.697e-9
0.293, 1.703e-9
0.294, 1.706e-9
0.295, 1.711e-9
0.296, 1.719e-9
0.297, 1.728e-9
0.298, 1.734e-9
0.299, 1.734e-9
0.300, 1.739e-9
0.301, 1.748e-9
0.302, 1.752e-9
0.303, 1.754e-9
0.304, 1.760e-9
0.305, 1.767e-9
0.306, 1.773e-9
0.307, 1.779e-9
0.308, 1.786e-9
0.309, 1.795e-9
0.310, 1.799e-9
0.311, 1.798e-9
0.312, 1.805e-9
0.313, 1.816e-9
0.314, 1.824e-9
0.315, 1.824e-9
0.316, 1.832e-9
0.317, 1.844e-9
0.318, 1.851e-9
0.319, 1.848e-9
0.320, 1.848e-9
0.321, 1.857e-9
0.322, 1.862e-9
0.323, 1.858e-9
0.324, 1.860e-9
0.325, 1.874e-9
0.326, 1.884e-9
0.327, 1.887e-9
0.328, 1.889e-9
0.329, 1.902e-9
0.330, 1.911e-9
0.331, 1.913e-9
0.332, 1.913e-9
0.333, 1.918e-9
0.334, 1.927e-9
0.335, 1.930e-9
0.336, 1.934e-9
0.337, 1.941e-9
0.338, 1.952e-9
0.339, 1.957e-9
0.340, 1.956e-9
0.341, 1.965e-9
0.342, 1.976e-9
0.343, 1.979e-9
0.344, 1.979e-9
0.345, 1.985e-9
0.346, 1.994e-9
0.347, 1.998e-9
0.348, 2.005e-9
0.349, 2.007e-9
0.350, 2.012e-9
0.351, 2.022e-9
0.352, 2.026e-9
0.353, 2.029e-9
0.354, 2.041e-9
0.355, 2.052e-9
0.356, 2.050e-9
0.357, 2.051e-9
0.358, 2.056e-9
0.359, 2.064e-9
0.360, 2.068e-9
0.361, 2.074e-9
0.362, 2.082e-9
0.363, 2.093e-9
0.364, 2.095e-9
0.365, 2.099e-9
0.366, 2.100e-9
0.367, 2.108e-9
0.368, 2.110e-9
0.369, 2.112e-9
0.370, 2.119e-9
0.371, 2.129e-9
0.372, 2.141e-9
0.373, 2.145e-9
0.374, 2.147e-9
0.375, 2.155e-9
0.376, 2.163e-9
0.377, 2.169e-9
0.378, 2.175e-9
0.379, 2.183e-9
0.380, 2.195e-9
0.381, 2.200e-9
0.382, 2.200e-9
0.383, 2.207e-9
0.384, 2.215e-9
0.385, 2.217e-9
0.386, 2.221e-9
0.387, 2.225e-9
0.388, 2.234e-9
0.389, 2.240e-9
0.390, 2.237e-9
0.391, 2.246e-9
0.392, 2.258e-9
0.393, 2.261e-9
0.394, 2.264e-9
0.395, 2.270e-9
0.396, 2.280e-9
0.397, 2.293e-9
0.398, 2.294e-9
0.399, 2.296e-9
0.400, 2.301e-9
0.401, 2.314e-9
0.402, 2.330e-9
0.403, 2.338e-9
0.404, 2.345e-9
0.405, 2.345e-9
0.406, 2.347e-9
0.407, 2.351e-9
0.408, 2.359e-9
0.409, 2.367e-9
0.410, 2.364e-9
0.411, 2.368e-9
0.412, 2.377e-9
0.413, 2.381e-9
0.414, 2.381e-9
0.415, 2.387e-9
0.416, 2.399e-9
0.417, 2.407e-9
0.418, 2.414e-9
0.419, 2.417e-9
0.420, 2.422e-9
0.421, 2.432e-9
0.422, 2.437e-9
0.423, 2.434e-9
0.424, 2.435e-9
0.425, 2.442e-9
0.426, 2.445e-9
0.427, 2.449e-9
0.428, 2.459e-9
0.429, 2.470e-9
0.430, 2.473e-9
0.431, 2.477e-9
0.432, 2.481e-9
0.433, 2.491e-9
0.434, 2.490e-9
0.435, 2.493e-9
0.436, 2.507e-9
0.437, 2.516e-9
0.438, 2.521e-9
0.439, 2.524e-9
0.440, 2.532e-9
0.441, 2.539e-9
0.442, 2.547e-9
0.443, 2.553e-9
0.444, 2.559e-9
0.445, 2.563e-9
0.446, 2.569e-9
0.447, 2.574e-9
0.448, 2.576e-9
0.449, 2.580e-9
0.450, 2.589e-9
0.451, 2.599e-9
0.452, 2.601e-9
0.453, 2.607e-9
0.454, 2.620e-9
0.455, 2.627e-9
0.456, 2.636e-9
0.457, 2.637e-9
0.458, 2.639e-9
0.459, 2.650e-9
0.460, 2.658e-9
0.461, 2.658e-9
0.462, 2.661e-9
0.463, 2.674e-9
0.464, 2.686e-9
0.465, 2.689e-9
0.466, 2.686e-9
0.467, 2.692e-9
0.468, 2.701e-9
0.469, 2.700e-9
0.470, 2.702e-9
0.471, 2.708e-9
0.472, 2.715e-9
0.473, 2.726e-9
0.474, 2.735e-9
0.475, 2.737e-9
0.476, 2.742e-9
0.477, 2.746e-9
0.478, 2.750e-9
0.479, 2.755e-9
0.480, 2.764e-9
0.481, 2.773e-9
0.482, 2.781e-9
0.483, 2.780e-9
0.484, 2.783e-9
0.485, 2.790e-9
0.486, 2.797e-9
0.487, 2.795e-9
0.488, 2.797e-9
0.489, 2.815e-9
0.490, 2.827e-9
0.491, 2.832e-9
0.492, 2.838e-9
0.493, 2.846e-9
0.494, 2.850e-9
0.495, 2.858e-9
0.496, 2.858e-9
0.497, 2.862e-9
0.498, 2.866e-9
0.499, 2.868e-9
0.500, 2.853e-9
0.499, 2.776e-9
0.498, 2.712e-9
0.497, 2.661e-9
0.496, 2.620e-9
0.495, 2.582e-9
0.494, 2.553e-9
0.493, 2.526e-9
0.492, 2.497e-9
0.491, 2.471e-9
0.490, 2.446e-9
0.489, 2.420e-9
0.488, 2.396e-9
0.487, 2.374e-9
0.486, 2.358e-9
0.485, 2.340e-9
0.484, 2.315e-9
0.483, 2.298e-9
0.482, 2.283e-9
0.481, 2.264e-9
0.480, 2.242e-9
0.479, 2.224e-9
0.478, 2.212e-9
0.477, 2.202e-9
0.476, 2.180e-9
0.475, 2.157e-9
0.474, 2.147e-9
0.473, 2.135e-9
0.472, 2.118e-9
0.471, 2.104e-9
0.470, 2.090e-9
0.469, 2.083e-9
0.468, 2.069e-9
0.467, 2.052e-9
0.466, 2.040e-9
0.465, 2.032e-9
0.464, 2.019e-9
0.463, 2.001e-9
0.462, 1.984e-9
0.461, 1.979e-9
0.460, 1.970e-9
0.459, 1.955e-9
0.458, 1.945e-9
0.457, 1.939e-9
0.456, 1.927e-9
0.455, 1.910e-9
0.454, 1.899e-9
0.453, 1.895e-9
0.452, 1.888e-9
0.451, 1.869e-9
0.450, 1.856e-9
0.449, 1.853e-9
0.448, 1.846e-9
0.447, 1.831e-9
0.446, 1.818e-9
0.445, 1.809e-9
0.444, 1.800e-9
0.443, 1.788e-9
0.442, 1.776e-9
0.441, 1.766e-9
0.440, 1.762e-9
0.439, 1.750e-9
0.438, 1.739e-9
0.437, 1.731e-9
0.436, 1.727e-9
0.435, 1.717e-9
0.434, 1.700e-9
0.433, 1.689e-9
0.432, 1.685e-9
0.431, 1.678e-9
0.430, 1.662e-9
0.429, 1.648e-9
0.428, 1.642e-9
0.427, 1.633e-9
0.426, 1.621e-9
0.425, 1.611e-9
0.424, 1.607e-9
0.423, 1.600e-9
0.422, 1.586e-9
0.421, 1.574e-9
0.420, 1.567e-9
0.419, 1.563e-9
0.418, 1.552e-9
0.417, 1.540e-9
0.416, 1.534e-9
0.415, 1.529e-9
0.414, 1.516e-9
0.413, 1.500e-9
0.412, 1.494e-9
0.411, 1.490e-9
0.410, 1.479e-9
0.409, 1.467e-9
0.408, 1.459e-9
0.407, 1.460e-9
0.406, 1.448e-9
0.405, 1.433e-9
0.404, 1.421e-9
0.403, 1.421e-9
0.402, 1.413e-9
0.401, 1.395e-9
0.400, 1.383e-9
0.399, 1.383e-9
0.398, 1.379e-9
0.397, 1.362e-9
0.396, 1.349e-9
0.395, 1.344e-9
0.394, 1.340e-9
0.393, 1.326e-9
0.392, 1.310e-9
0.391, 1.303e-9
0.390, 1.301e-9
0.389, 1.292e-9
0.388, 1.275e-9
0.387, 1.268e-9
0.386, 1.268e-9
0.385, 1.263e-9
0.384, 1.248e-9
0.383, 1.237e-9
0.382, 1.234e-9
0.381, 1.229e-9
0.380, 1.218e-9
0.379, 1.206e-9
0.378, 1.201e-9
0.377, 1.197e-9
0.376, 1.186e-9
0.375, 1.173e-9
0.374, 1.168e-9
0.373, 1.163e-9
0.372, 1.152e-9
0.371, 1.142e-9
0.370, 1.138e-9
0.369, 1.133e-9
0.368, 1.123e-9
0.367, 1.112e-9
0.366, 1.107e-9
0.365, 1.102e-9
0.364, 1.095e-9
0.363, 1.084e-9
0.362, 1.076e-9
0.361, 1.073e-9
0.360, 1.065e-9
0.359, 1.055e-9
0.358, 1.049e-9
0.357, 1.045e-9
0.356, 1.040e-9
0.355, 1.027e-9
0.354, 1.019e-9
0.353, 1.016e-9
0.352, 1.010e-9
0.351, 1.000e-9
0.350, 9.915e-10
0.349, 9.871e-10
0.348, 9.807e-10
0.347, 9.711e-10
0.346, 9.618e-10
0.345, 9.586e-10
0.344, 9.552e-10
0.343, 9.434e-10
0.342, 9.307e-10
0.341, 9.261e-10
0.340, 9.233e-10
0.339, 9.141e-10
0.338, 9.019e-10
0.337, 8.976e-10
0.336, 8.970e-10
0.335, 8.887e-10
0.334, 8.763e-10
0.333, 8.706e-10
0.332, 8.690e-10
0.331, 8.621e-10
0.330, 8.501e-10
0.329, 8.420e-10
0.328, 8.396e-10
0.327, 8.340e-10
0.326, 8.232e-10
0.325, 8.148e-10
0.324, 8.105e-10
0.323, 8.054e-10
0.322, 7.971e-10
0.321, 7.871e-10
0.320, 7.823e-10
0.319, 7.796e-10
0.318, 7.738e-10
0.317, 7.641e-10
0.316, 7.578e-10
0.315, 7.553e-10
0.314, 7.483e-10
0.313, 7.382e-10
0.312, 7.332e-10
0.311, 7.304e-10
0.310, 7.259e-10
0.309, 7.146e-10
0.308, 7.048e-10
0.307, 7.002e-10
0.306, 6.961e-10
0.305, 6.880e-10
0.304, 6.793e-10
0.303, 6.740e-10
0.302, 6.712e-10
0.301, 6.624e-10
0.300, 6.546e-10
0.299, 6.513e-10
0.298, 6.493e-10
0.297, 6.432e-10
0.296, 6.346e-10
0.295, 6.288e-10
0.294, 6.255e-10
0.293, 6.194e-10
0.292, 6.121e-10
0.291, 6.070e-10
0.290, 6.025e-10
0.289, 5.962e-10
0.288, 5.895e-10
0.287, 5.830e-10
0.286, 5.779e-10
0.285, 5.726e-10
0.284, 5.685e-10
0.283, 5.605e-10
0.282, 5.544e-10
0.281, 5.510e-10
0.280, 5.473e-10
0.279, 5.397e-10
0.278, 5.329e-10
0.277, 5.275e-10
0.276, 5.235e-10
0.275, 5.169e-10
0.274, 5.095e-10
0.273, 5.040e-10
0.272, 5.016e-10
0.271, 4.964e-10
0.270, 4.874e-10
0.269, 4.796e-10
0.268, 4.754e-10
0.267, 4.719e-10
0.266, 4.638e-10
0.265, 4.544e-10
0.264, 4.519e-10
0.263, 4.501e-10
0.262, 4.428e-10
0.261, 4.311e-10
0.260, 4.262e-10
0.259, 4.264e-10
0.258, 4.215e-10
0.257, 4.113e-10
0.256, 4.052e-10
0.255, 4.046e-10
0.254, 4.028e-10
0.253, 3.944e-10
0.252, 3.856e-10
0.251, 3.848e-10
0.250, 3.853e-10
0.249, 3.779e-10
0.248, 3.669e-10
0.247, 3.631e-10
0.246, 3.650e-10
0.245, 3.614e-10
0.244, 3.503e-10
0.243, 3.448e-10
0.242, 3.460e-10
0.241, 3.428e-10
0.240, 3.320e-10
0.239, 3.228e-10
0.238, 3.245e-10
0.237, 3.240e-10
0.236, 3.156e-10
0.235, 3.044e-10
0.234, 3.027e-10
0.233, 3.049e-10
0.232, 2.984e-10
0.231, 2.877e-10
0.230, 2.843e-10
0.229, 2.851e-10
0.228, 2.815e-10
0.227, 2.718e-10
0.226, 2.659e-10
0.225, 2.664e-10
0.224, 2.657e-10
0.223, 2.571e-10
0.222, 2.493e-10
0.221, 2.465e-10
0.220, 2.445e-10
0.219, 2.381e-10
0.218, 2.305e-10
0.217, 2.262e-10
0.216, 2.245e-10
0.215, 2.194e-10
0.214, 2.102e-10
0.213, 2.048e-10
0.212, 2.021e-10
0.211, 2.004e-10
0.210, 1.941e-10
0.209, 1.871e-10
0.208, 1.827e-10
0.207, 1.818e-10
0.206, 1.777e-10
0.205, 1.723e-10
0.204, 1.670e-10
0.203, 1.626e-10
0.202, 1.628e-10
0.201, 1.583e-10
0.200, 1.519e-10
0.199, 1.486e-10
0.198, 1.488e-10
0.197, 1.449e-10
0.196, 1.376e-10
0.195, 1.322e-10
0.194, 1.324e-10
0.193, 1.311e-10
0.192, 1.232e-10
0.191, 1.153e-10
0.190, 1.164e-10
0.189, 1.156e-10
0.188, 1.069e-10
0.187, 9.850e-11
0.186, 9.820e-11
0.185, 9.859e-11
0.184, 9.304e-11
0.183, 8.378e-11
0.182, 8.105e-11
0.181, 8.319e-11
0.180, 7.627e-11
0.179, 6.457e-11
0.178, 6.155e-11
0.177, 6.350e-11
0.176, 6.116e-11
0.175, 5.151e-11
0.174, 4.595e-11
0.173, 4.800e-11
0.172, 4.517e-11
0.171, 3.562e-11
0.170, 2.909e-11
0.169, 2.928e-11
0.168, 2.821e-11
0.167, 2.051e-11
0.166, 1.369e-11
0.165, 1.271e-11
0.164, 1.339e-11
0.163, 7.253e-12
0.162, -3.568e-12
0.161, -6.395e-12
0.160, -4.640e-12
0.159, -1.117e-11
0.158, -2.014e-11
0.157, -2.355e-11
0.156, -2.160e-11
0.155, -2.657e-11
0.154, -3.691e-11
0.153, -4.003e-11
0.152, -3.798e-11
0.151, -4.227e-11
0.150, -5.494e-11
0.149, -5.962e-11
0.148, -5.679e-11
0.147, -5.864e-11
0.146, -6.771e-11
0.145, -7.395e-11
0.144, -7.132e-11
0.143, -7.356e-11
0.142, -8.185e-11
0.141, -8.906e-11
0.140, -8.818e-11
0.139, -8.886e-11
0.138, -9.676e-11
0.137, -1.052e-10
0.136, -1.042e-10
0.135, -1.011e-10
0.134, -1.089e-10
0.133, -1.191e-10
0.132, -1.205e-10
0.131, -1.165e-10
0.130, -1.222e-10
0.129, -1.334e-10
0.128, -1.374e-10
0.127, -1.346e-10
0.126, -1.376e-10
0.125, -1.475e-10
0.124, -1.530e-10
0.123, -1.497e-10
0.122, -1.506e-10
0.121, -1.605e-10
0.120, -1.680e-10
0.119, -1.651e-10
0.118, -1.654e-10
0.117, -1.745e-10
0.116, -1.824e-10
0.115, -1.829e-10
0.114, -1.812e-10
0.113, -1.881e-10
0.112, -1.970e-10
0.111, -1.978e-10
0.110, -1.967e-10
0.109, -2.037e-10
0.108, -2.120e-10
0.107, -2.141e-10
0.106, -2.133e-10
0.105, -2.177e-10
0.104, -2.275e-10
0.103, -2.317e-10
0.102, -2.320e-10
0.101, -2.336e-10
0.100, -2.427e-10
0.099, -2.482e-10
0.098, -2.457e-10
0.097, -2.483e-10
0.096, -2.581e-10
0.095, -2.652e-10
0.094, -2.635e-10
0.093, -2.643e-10
0.092, -2.733e-10
0.091, -2.829e-10
0.090, -2.823e-10
0.089, -2.812e-10
0.088, -2.908e-10
0.087, -2.992e-10
0.086, -3.010e-10
0.085, -2.998e-10
0.084, -3.062e-10
0.083, -3.164e-10
0.082, -3.190e-10
0.081, -3.151e-10
0.080, -3.184e-10
0.079, -3.280e-10
0.078, -3.319e-10
0.077, -3.294e-10
0.076, -3.319e-10
0.075, -3.410e-10
0.074, -3.475e-10
0.073, -3.451e-10
0.072, -3.466e-10
0.071, -3.555e-10
0.070, -3.631e-10
0.069, -3.609e-10
0.068, -3.598e-10
0.067, -3.672e-10
0.066, -3.759e-10
0.065, -3.761e-10
0.064, -3.759e-10
0.063, -3.824e-10
0.062, -3.921e-10
0.061, -3.940e-10
0.060, -3.918e-10
0.059, -3.977e-10
0.058, -4.076e-10
0.057, -4.110e-10
0.056, -4.103e-10
0.055, -4.146e-10
0.054, -4.222e-10
0.053, -4.273e-10
0.052, -4.290e-10
0.051, -4.310e-10
0.050, -4.373e-10
0.049, -4.428e-10
0.048, -4.449e-10
0.047, -4.474e-10
0.046, -4.523e-10
0.045, -4.580e-10
0.044, -4.607e-10
0.043, -4.640e-10
0.042, -4.675e-10
0.041, -4.746e-10
0.040, -4.809e-10
0.039, -4.840e-10
0.038, -4.861e-10
0.037, -4.940e-10
0.036, -4.999e-10
0.035, -5.041e-10
0.034, -5.083e-10
0.033, -5.131e-10
0.032, -5.196e-10
0.031, -5.247e-10
0.030, -5.279e-10
0.029, -5.320e-10
0.028, -5.388e-10
0.027, -5.443e-10
0.026, -5.472e-10
0.025, -5.511e-10
0.024, -5.562e-10
0.023, -5.627e-10
0.022, -5.674e-10
0.021, -5.714e-10
0.020, -5.746e-10
0.019, -5.798e-10
0.018, -5.847e-10
0.017, -5.880e-10
0.016, -5.915e-10
0.015, -5.975e-10
0.014, -6.037e-10
0.013, -6.068e-10
0.012, -6.091e-10
0.011, -6.134e-10
0.010, -6.228e-10
0.009, -6.266e-10
0.008, -6.276e-10
0.007, -6.320e-10
0.006, -6.417e-10
0.005, -6.481e-10
0.004, -6.487e-10
0.003, -6.521e-10
0.002, -6.620e-10
0.001, -6.686e-10
-0.000, -6.674e-10
-0.001, -6.712e-10
-0.002, -6.809e-10
-0.003, -6.883e-10
-0.004, -6.896e-10
-0.005, -6.924e-10
-0.006, -7.010e-10
-0.007, -7.095e-10
-0.008, -7.118e-10
-0.009, -7.153e-10
-0.010, -7.220e-10
-0.011, -7.302e-10
-0.012, -7.356e-10
-0.013, -7.389e-10
-0.014, -7.451e-10
-0.015, -7.534e-10
-0.016, -7.594e-10
-0.017, -7.630e-10
-0.018, -7.679e-10
-0.019, -7.748e-10
-0.020, -7.821e-10
-0.021, -7.870e-10
-0.022, -7.902e-10
-0.023, -7.963e-10
-0.024, -8.047e-10
-0.025, -8.099e-10
-0.026, -8.134e-10
-0.027, -8.195e-10
-0.028, -8.268e-10
-0.029, -8.312e-10
-0.030, -8.351e-10
-0.031, -8.400e-10
-0.032, -8.479e-10
-0.033, -8.540e-10
-0.034, -8.565e-10
-0.035, -8.610e-10
-0.036, -8.695e-10
-0.037, -8.773e-10
-0.038, -8.827e-10
-0.039, -8.875e-10
-0.040, -8.958e-10
-0.041, -9.035e-10
-0.042, -9.077e-10
-0.043, -9.136e-10
-0.044, -9.222e-10
-0.045, -9.304e-10
-0.046, -9.359e-10
-0.047, -9.399e-10
-0.048, -9.472e-10
-0.049, -9.560e-10
-0.050, -9.615e-10
-0.051, -9.646e-10
-0.052, -9.732e-10
-0.053, -9.843e-10
-0.054, -9.908e-10
-0.055, -9.950e-10
-0.056, -1.005e-9
-0.057, -1.016e-9
-0.058, -1.023e-9
-0.059, -1.028e-9
-0.060, -1.035e-9
-0.061, -1.045e-9
-0.062, -1.053e-9
-0.063, -1.057e-9
-0.064, -1.063e-9
-0.065, -1.074e-9
-0.066, -1.081e-9
-0.067, -1.084e-9
-0.068, -1.091e-9
-0.069, -1.101e-9
-0.070, -1.110e-9
-0.071, -1.114e-9
-0.072, -1.119e-9
-0.073, -1.130e-9
-0.074, -1.139e-9
-0.075, -1.143e-9
-0.076, -1.148e-9
-0.077, -1.160e-9
-0.078, -1.171e-9
-0.079, -1.176e-9
-0.080, -1.181e-9
-0.081, -1.191e-9
-0.082, -1.203e-9
-0.083, -1.209e-9
-0.084, -1.214e-9
-0.085, -1.223e-9
-0.086, -1.235e-9
-0.087, -1.244e-9
-0.088, -1.251e-9
-0.089, -1.260e-9
-0.090, -1.269e-9
-0.091, -1.279e-9
-0.092, -1.286e-9
-0.093, -1.292e-9
-0.094, -1.300e-9
-0.095, -1.310e-9
-0.096, -1.319e-9
-0.097, -1.325e-9
-0.098, -1.332e-9
-0.099, -1.340e-9
-0.100, -1.350e-9
-0.101, -1.358e-9
-0.102, -1.366e-9
-0.103, -1.377e-9
-0.104, -1.386e-9
-0.105, -1.396e-9
-0.106, -1.404e-9
-0.107, -1.413e-9
-0.108, -1.422e-9
-0.109, -1.433e-9
-0.110, -1.442e-9
-0.111, -1.449e-9
-0.112, -1.457e-9
-0.113, -1.467e-9
-0.114, -1.479e-9
-0.115, -1.489e-9
-0.116, -1.495e-9
-0.117, -1.507e-9
-0.118, -1.520e-9
-0.119, -1.528e-9
-0.120, -1.534e-9
-0.121, -1.544e-9
-0.122, -1.556e-9
-0.123, -1.566e-9
-0.124, -1.573e-9
-0.125, -1.580e-9
-0.126, -1.595e-9
-0.127, -1.606e-9
-0.128, -1.612e-9
-0.129, -1.619e-9
-0.130, -1.631e-9
-0.131, -1.644e-9
-0.132, -1.650e-9
-0.133, -1.655e-9
-0.134, -1.668e-9
-0.135, -1.682e-9
-0.136, -1.689e-9
-0.137, -1.693e-9
-0.138, -1.704e-9
-0.139, -1.721e-9
-0.140, -1.732e-9
-0.141, -1.736e-9
-0.142, -1.746e-9
-0.143, -1.762e-9
-0.144, -1.774e-9
-0.145, -1.779e-9
-0.146, -1.785e-9
-0.147, -1.799e-9
-0.148, -1.814e-9
-0.149, -1.821e-9
-0.150, -1.826e-9
-0.151, -1.840e-9
-0.152, -1.859e-9
-0.153, -1.869e-9
-0.154, -1.872e-9
-0.155, -1.884e-9
-0.156, -1.900e-9
-0.157, -1.912e-9
-0.158, -1.917e-9
-0.159, -1.926e-9
-0.160, -1.942e-9
-0.161, -1.954e-9
-0.162, -1.959e-9
-0.163, -1.966e-9
-0.164, -1.981e-9
-0.165, -1.996e-9
-0.166, -2.004e-9
-0.167, -2.010e-9
-0.168, -2.024e-9
-0.169, -2.038e-9
-0.170, -2.047e-9
-0.171, -2.055e-9
-0.172, -2.067e-9
-0.173, -2.083e-9
-0.174, -2.094e-9
-0.175, -2.101e-9
-0.176, -2.113e-9
-0.177, -2.128e-9
-0.178, -2.138e-9
-0.179, -2.146e-9
-0.180, -2.157e-9
-0.181, -2.168e-9
-0.182, -2.180e-9
-0.183, -2.190e-9
-0.184, -2.201e-9
-0.185, -2.213e-9
-0.186, -2.226e-9
-0.187, -2.238e-9
-0.188, -2.248e-9
-0.189, -2.259e-9
-0.190, -2.271e-9
-0.191, -2.281e-9
-0.192, -2.290e-9
-0.193, -2.301e-9
-0.194, -2.313e-9
-0.195, -2.324e-9
-0.196, -2.336e-9
-0.197, -2.349e-9
-0.198, -2.363e-9
-0.199, -2.374e-9
-0.200, -2.384e-9
-0.201, -2.395e-9
-0.202, -2.407e-9
-0.203, -2.417e-9
-0.204, -2.427e-9
-0.205, -2.438e-9
-0.206, -2.452e-9
-0.207, -2.462e-9
-0.208, -2.474e-9
-0.209, -2.489e-9
-0.210, -2.503e-9
-0.211, -2.510e-9
-0.212, -2.520e-9
-0.213, -2.533e-9
-0.214, -2.545e-9
-0.215, -2.553e-9
-0.216, -2.562e-9
-0.217, -2.576e-9
-0.218, -2.586e-9
-0.219, -2.593e-9
-0.220, -2.604e-9
-0.221, -2.618e-9
-0.222, -2.630e-9
-0.223, -2.639e-9
-0.224, -2.647e-9
-0.225, -2.659e-9
-0.226, -2.673e-9
-0.227, -2.685e-9
-0.228, -2.694e-9
-0.229, -2.707e-9
-0.230, -2.723e-9
-0.231, -2.735e-9
-0.232, -2.742e-9
-0.233, -2.752e-9
-0.234, -2.766e-9
-0.235, -2.778e-9
-0.236, -2.784e-9
-0.237, -2.792e-9
-0.238, -2.808e-9
-0.239, -2.825e-9
-0.240, -2.834e-9
-0.241, -2.842e-9
-0.242, -2.859e-9
-0.243, -2.874e-9
-0.244, -2.882e-9
-0.245, -2.890e-9
-0.246, -2.902e-9
-0.247, -2.916e-9
-0.248, -2.927e-9
-0.249, -2.938e-9
-0.250, -2.949e-9
-0.251, -2.964e-9
-0.252, -2.976e-9
-0.253, -2.988e-9
-0.254, -3.000e-9
-0.255, -3.013e-9
-0.256, -3.024e-9
-0.257, -3.034e-9
-0.258, -3.046e-9
-0.259, -3.058e-9
-0.260, -3.071e-9
-0.261, -3.083e-9
-0.262, -3.094e-9
-0.263, -3.108e-9
-0.264, -3.120e-9
-0.265, -3.130e-9
-0.266, -3.140e-9
-0.267, -3.153e-9
-0.268, -3.165e-9
-0.269, -3.175e-9
-0.270, -3.188e-9
-0.271, -3.201e-9
-0.272, -3.218e-9
-0.273, -3.230e-9
-0.274, -3.241e-9
-0.275, -3.253e-9
-0.276, -3.264e-9
-0.277, -3.275e-9
-0.278, -3.286e-9
-0.279, -3.299e-9
-0.280, -3.313e-9
-0.281, -3.322e-9
-0.282, -3.333e-9
-0.283, -3.348e-9
-0.284, -3.359e-9
-0.285, -3.368e-9
-0.286, -3.382e-9
-0.287, -3.396e-9
-0.288, -3.406e-9
-0.289, -3.413e-9
-0.290, -3.429e-9
-0.291, -3.448e-9
-0.292, -3.459e-9
-0.293, -3.466e-9
-0.294, -3.480e-9
-0.295, -3.496e-9
-0.296, -3.503e-9
-0.297, -3.506e-9
-0.298, -3.516e-9
-0.299, -3.536e-9
-0.300, -3.550e-9
-0.301, -3.555e-9
-0.302, -3.564e-9
-0.303, -3.585e-9
-0.304, -3.599e-9
-0.305, -3.605e-9
-0.306, -3.615e-9
-0.307, -3.632e-9
-0.308, -3.649e-9
-0.309, -3.655e-9
-0.310, -3.664e-9
-0.311, -3.681e-9
-0.312, -3.698e-9
-0.313, -3.707e-9
-0.314, -3.716e-9
-0.315, -3.732e-9
-0.316, -3.748e-9
-0.317, -3.757e-9
-0.318, -3.763e-9
-0.319, -3.775e-9
-0.320, -3.794e-9
-0.321, -3.808e-9
-0.322, -3.815e-9
-0.323, -3.824e-9
-0.324, -3.846e-9
-0.325, -3.861e-9
-0.326, -3.871e-9
-0.327, -3.879e-9
-0.328, -3.897e-9
-0.329, -3.914e-9
-0.330, -3.922e-9
-0.331, -3.931e-9
-0.332, -3.948e-9
-0.333, -3.966e-9
-0.334, -3.978e-9
-0.335, -3.986e-9
-0.336, -4.000e-9
-0.337, -4.017e-9
-0.338, -4.026e-9
-0.339, -4.033e-9
-0.340, -4.049e-9
-0.341, -4.072e-9
-0.342, -4.082e-9
-0.343, -4.088e-9
-0.344, -4.106e-9
-0.345, -4.123e-9
-0.346, -4.132e-9
-0.347, -4.141e-9
-0.348, -4.158e-9
-0.349, -4.177e-9
-0.350, -4.192e-9
-0.351, -4.196e-9
-0.352, -4.209e-9
-0.353, -4.228e-9
-0.354, -4.244e-9
-0.355, -4.252e-9
-0.356, -4.260e-9
-0.357, -4.281e-9
-0.358, -4.301e-9
-0.359, -4.312e-9
-0.360, -4.323e-9
-0.361, -4.338e-9
-0.362, -4.356e-9
-0.363, -4.373e-9
-0.364, -4.385e-9
-0.365, -4.400e-9
-0.366, -4.422e-9
-0.367, -4.442e-9
-0.368, -4.447e-9
-0.369, -4.459e-9
-0.370, -4.481e-9
-0.371, -4.499e-9
-0.372, -4.507e-9
-0.373, -4.520e-9
-0.374, -4.543e-9
-0.375, -4.564e-9
-0.376, -4.571e-9
-0.377, -4.582e-9
-0.378, -4.605e-9
-0.379, -4.626e-9
-0.380, -4.633e-9
-0.381, -4.645e-9
-0.382, -4.670e-9
-0.383, -4.690e-9
-0.384, -4.697e-9
-0.385, -4.710e-9
-0.386, -4.731e-9
-0.387, -4.747e-9
-0.388, -4.753e-9
-0.389, -4.764e-9
-0.390, -4.787e-9
-0.391, -4.807e-9
-0.392, -4.818e-9
-0.393, -4.828e-9
-0.394, -4.845e-9
-0.395, -4.864e-9
-0.396, -4.876e-9
-0.397, -4.886e-9
-0.398, -4.903e-9
-0.399, -4.927e-9
-0.400, -4.943e-9
-0.401, -4.952e-9
-0.402, -4.965e-9
-0.403, -4.987e-9
-0.404, -5.005e-9
-0.405, -5.013e-9
-0.406, -5.023e-9
-0.407, -5.041e-9
-0.408, -5.065e-9
-0.409, -5.076e-9
-0.410, -5.083e-9
-0.411, -5.101e-9
-0.412, -5.125e-9
-0.413, -5.137e-9
-0.414, -5.145e-9
-0.415, -5.168e-9
-0.416, -5.187e-9
-0.417, -5.197e-9
-0.418, -5.208e-9
-0.419, -5.219e-9
-0.420, -5.241e-9
-0.421, -5.258e-9
-0.422, -5.264e-9
-0.423, -5.278e-9
-0.424, -5.298e-9
-0.425, -5.319e-9
-0.426, -5.329e-9
-0.427, -5.339e-9
-0.428, -5.354e-9
-0.429, -5.373e-9
-0.430, -5.387e-9
-0.431, -5.401e-9
-0.432, -5.423e-9
-0.433, -5.441e-9
-0.434, -5.454e-9
-0.435, -5.462e-9
-0.436, -5.480e-9
-0.437, -5.501e-9
-0.438, -5.518e-9
-0.439, -5.531e-9
-0.440, -5.549e-9
-0.441, -5.568e-9
-0.442, -5.584e-9
-0.443, -5.592e-9
-0.444, -5.603e-9
-0.445, -5.622e-9
-0.446, -5.643e-9
-0.447, -5.660e-9
-0.448, -5.673e-9
-0.449, -5.690e-9
-0.450, -5.705e-9
-0.451, -5.717e-9
-0.452, -5.728e-9
-0.453, -5.743e-9
-0.454, -5.767e-9
-0.455, -5.782e-9
-0.456, -5.794e-9
-0.457, -5.809e-9
-0.458, -5.825e-9
-0.459, -5.833e-9
-0.460, -5.848e-9
-0.461, -5.866e-9
-0.462, -5.887e-9
-0.463, -5.902e-9
-0.464, -5.911e-9
-0.465, -5.929e-9
-0.466, -5.945e-9
-0.467, -5.960e-9
-0.468, -5.975e-9
-0.469, -5.991e-9
-0.470, -6.009e-9
-0.471, -6.024e-9
-0.472, -6.034e-9
-0.473, -6.048e-9
-0.474, -6.064e-9
-0.475, -6.080e-9
-0.476, -6.092e-9
-0.477, -6.107e-9
-0.478, -6.121e-9
-0.479, -6.142e-9
-0.480, -6.156e-9
-0.481, -6.164e-9
-0.482, -6.178e-9
-0.483, -6.193e-9
-0.484, -6.207e-9
-0.485, -6.223e-9
-0.486, -6.237e-9
-0.487, -6.250e-9
-0.488, -6.267e-9
-0.489, -6.280e-9
-0.490, -6.289e-9
-0.491, -6.300e-9
-0.492, -6.315e-9
-0.493, -6.326e-9
-0.494, -6.343e-9
-0.495, -6.362e-9
-0.496, -6.375e-9
-0.497, -6.391e-9
-0.498, -6.407e-9
-0.499, -6.421e-9
