Mar. 6, 2025   16:07:37
Cyclic Voltammetry
File: cv surface (incubation) (3).bin
Data Source:  Experiment
Instrument Model:  CHI920C
Ref. Electrode: 
Header: 
Note: 

Init E (V) = -0.5
High E (V) = 0.5
Low E (V) = -0.5
Init P/N = P
Scan Rate (V/s) = 0.05
Segment = 2
Sample Interval (V) = 0.001
Quiet Time (sec) = 10
Sensitivity (A/V) = 1e-7

Results:

Channel 1:
Segment 1:

Segment 2:

Potential/V, Current/A

-0.500, -5.136e-9
-0.499, -5.080e-9
-0.498, -5.030e-9
-0.497, -4.991e-9
-0.496, -4.960e-9
-0.495, -4.926e-9
-0.494, -4.889e-9
-0.493, -4.855e-9
-0.492, -4.826e-9
-0.491, -4.797e-9
-0.490, -4.764e-9
-0.489, -4.735e-9
-0.488, -4.711e-9
-0.487, -4.686e-9
-0.486, -4.655e-9
-0.485, -4.622e-9
-0.484, -4.595e-9
-0.483, -4.568e-9
-0.482, -4.538e-9
-0.481, -4.511e-9
-0.480, -4.487e-9
-0.479, -4.465e-9
-0.478, -4.439e-9
-0.477, -4.407e-9
-0.476, -4.380e-9
-0.475, -4.360e-9
-0.474, -4.337e-9
-0.473, -4.312e-9
-0.472, -4.284e-9
-0.471, -4.264e-9
-0.470, -4.244e-9
-0.469, -4.220e-9
-0.468, -4.194e-9
-0.467, -4.170e-9
-0.466, -4.147e-9
-0.465, -4.121e-9
-0.464, -4.094e-9
-0.463, -4.070e-9
-0.462, -4.049e-9
-0.461, -4.026e-9
-0.460, -4.003e-9
-0.459, -3.980e-9
-0.458, -3.961e-9
-0.457, -3.939e-9
-0.456, -3.913e-9
-0.455, -3.890e-9
-0.454, -3.869e-9
-0.453, -3.848e-9
-0.452, -3.824e-9
-0.451, -3.800e-9
-0.450, -3.779e-9
-0.449, -3.761e-9
-0.448, -3.742e-9
-0.447, -3.722e-9
-0.446, -3.701e-9
-0.445, -3.678e-9
-0.444, -3.654e-9
-0.443, -3.632e-9
-0.442, -3.613e-9
-0.441, -3.591e-9
-0.440, -3.568e-9
-0.439, -3.547e-9
-0.438, -3.528e-9
-0.437, -3.509e-9
-0.436, -3.490e-9
-0.435, -3.472e-9
-0.434, -3.456e-9
-0.433, -3.435e-9
-0.432, -3.413e-9
-0.431, -3.393e-9
-0.430, -3.377e-9
-0.429, -3.356e-9
-0.428, -3.333e-9
-0.427, -3.312e-9
-0.426, -3.291e-9
-0.425, -3.274e-9
-0.424, -3.255e-9
-0.423, -3.235e-9
-0.422, -3.215e-9
-0.421, -3.196e-9
-0.420, -3.176e-9
-0.419, -3.158e-9
-0.418, -3.137e-9
-0.417, -3.119e-9
-0.416, -3.102e-9
-0.415, -3.082e-9
-0.414, -3.061e-9
-0.413, -3.042e-9
-0.412, -3.024e-9
-0.411, -3.007e-9
-0.410, -2.988e-9
-0.409, -2.969e-9
-0.408, -2.950e-9
-0.407, -2.933e-9
-0.406, -2.916e-9
-0.405, -2.896e-9
-0.404, -2.878e-9
-0.403, -2.862e-9
-0.402, -2.845e-9
-0.401, -2.825e-9
-0.400, -2.804e-9
-0.399, -2.787e-9
-0.398, -2.773e-9
-0.397, -2.756e-9
-0.396, -2.737e-9
-0.395, -2.718e-9
-0.394, -2.702e-9
-0.393, -2.685e-9
-0.392, -2.666e-9
-0.391, -2.648e-9
-0.390, -2.635e-9
-0.389, -2.620e-9
-0.388, -2.600e-9
-0.387, -2.583e-9
-0.386, -2.568e-9
-0.385, -2.551e-9
-0.384, -2.535e-9
-0.383, -2.518e-9
-0.382, -2.503e-9
-0.381, -2.487e-9
-0.380, -2.469e-9
-0.379, -2.451e-9
-0.378, -2.435e-9
-0.377, -2.420e-9
-0.376, -2.403e-9
-0.375, -2.388e-9
-0.374, -2.371e-9
-0.373, -2.354e-9
-0.372, -2.340e-9
-0.371, -2.325e-9
-0.370, -2.306e-9
-0.369, -2.291e-9
-0.368, -2.278e-9
-0.367, -2.264e-9
-0.366, -2.248e-9
-0.365, -2.229e-9
-0.364, -2.216e-9
-0.363, -2.201e-9
-0.362, -2.183e-9
-0.361, -2.165e-9
-0.360, -2.153e-9
-0.359, -2.142e-9
-0.358, -2.126e-9
-0.357, -2.109e-9
-0.356, -2.093e-9
-0.355, -2.082e-9
-0.354, -2.067e-9
-0.353, -2.050e-9
-0.352, -2.035e-9
-0.351, -2.024e-9
-0.350, -2.009e-9
-0.349, -1.992e-9
-0.348, -1.974e-9
-0.347, -1.963e-9
-0.346, -1.950e-9
-0.345, -1.934e-9
-0.344, -1.919e-9
-0.343, -1.907e-9
-0.342, -1.898e-9
-0.341, -1.882e-9
-0.340, -1.864e-9
-0.339, -1.851e-9
-0.338, -1.839e-9
-0.337, -1.825e-9
-0.336, -1.810e-9
-0.335, -1.797e-9
-0.334, -1.788e-9
-0.333, -1.777e-9
-0.332, -1.762e-9
-0.331, -1.746e-9
-0.330, -1.734e-9
-0.329, -1.723e-9
-0.328, -1.707e-9
-0.327, -1.692e-9
-0.326, -1.681e-9
-0.325, -1.672e-9
-0.324, -1.658e-9
-0.323, -1.643e-9
-0.322, -1.633e-9
-0.321, -1.624e-9
-0.320, -1.611e-9
-0.319, -1.595e-9
-0.318, -1.585e-9
-0.317, -1.577e-9
-0.316, -1.565e-9
-0.315, -1.551e-9
-0.314, -1.540e-9
-0.313, -1.532e-9
-0.312, -1.518e-9
-0.311, -1.501e-9
-0.310, -1.488e-9
-0.309, -1.477e-9
-0.308, -1.466e-9
-0.307, -1.449e-9
-0.306, -1.435e-9
-0.305, -1.427e-9
-0.304, -1.419e-9
-0.303, -1.406e-9
-0.302, -1.391e-9
-0.301, -1.381e-9
-0.300, -1.373e-9
-0.299, -1.360e-9
-0.298, -1.345e-9
-0.297, -1.336e-9
-0.296, -1.330e-9
-0.295, -1.318e-9
-0.294, -1.306e-9
-0.293, -1.295e-9
-0.292, -1.289e-9
-0.291, -1.279e-9
-0.290, -1.261e-9
-0.289, -1.247e-9
-0.288, -1.241e-9
-0.287, -1.230e-9
-0.286, -1.214e-9
-0.285, -1.202e-9
-0.284, -1.196e-9
-0.283, -1.187e-9
-0.282, -1.174e-9
-0.281, -1.162e-9
-0.280, -1.156e-9
-0.279, -1.146e-9
-0.278, -1.133e-9
-0.277, -1.123e-9
-0.276, -1.115e-9
-0.275, -1.106e-9
-0.274, -1.093e-9
-0.273, -1.085e-9
-0.272, -1.077e-9
-0.271, -1.068e-9
-0.270, -1.057e-9
-0.269, -1.047e-9
-0.268, -1.039e-9
-0.267, -1.029e-9
-0.266, -1.017e-9
-0.265, -1.006e-9
-0.264, -9.962e-10
-0.263, -9.869e-10
-0.262, -9.770e-10
-0.261, -9.643e-10
-0.260, -9.565e-10
-0.259, -9.496e-10
-0.258, -9.400e-10
-0.257, -9.294e-10
-0.256, -9.200e-10
-0.255, -9.127e-10
-0.254, -9.043e-10
-0.253, -8.945e-10
-0.252, -8.829e-10
-0.251, -8.750e-10
-0.250, -8.686e-10
-0.249, -8.582e-10
-0.248, -8.477e-10
-0.247, -8.393e-10
-0.246, -8.343e-10
-0.245, -8.264e-10
-0.244, -8.169e-10
-0.243, -8.078e-10
-0.242, -8.011e-10
-0.241, -7.925e-10
-0.240, -7.822e-10
-0.239, -7.736e-10
-0.238, -7.666e-10
-0.237, -7.589e-10
-0.236, -7.504e-10
-0.235, -7.395e-10
-0.234, -7.308e-10
-0.233, -7.246e-10
-0.232, -7.180e-10
-0.231, -7.081e-10
-0.230, -6.985e-10
-0.229, -6.900e-10
-0.228, -6.831e-10
-0.227, -6.741e-10
-0.226, -6.632e-10
-0.225, -6.564e-10
-0.224, -6.511e-10
-0.223, -6.443e-10
-0.222, -6.338e-10
-0.221, -6.258e-10
-0.220, -6.199e-10
-0.219, -6.139e-10
-0.218, -6.045e-10
-0.217, -5.934e-10
-0.216, -5.872e-10
-0.215, -5.823e-10
-0.214, -5.733e-10
-0.213, -5.639e-10
-0.212, -5.572e-10
-0.211, -5.520e-10
-0.210, -5.444e-10
-0.209, -5.320e-10
-0.208, -5.220e-10
-0.207, -5.173e-10
-0.206, -5.111e-10
-0.205, -4.980e-10
-0.204, -4.881e-10
-0.203, -4.830e-10
-0.202, -4.765e-10
-0.201, -4.663e-10
-0.200, -4.550e-10
-0.199, -4.492e-10
-0.198, -4.468e-10
-0.197, -4.386e-10
-0.196, -4.277e-10
-0.195, -4.218e-10
-0.194, -4.193e-10
-0.193, -4.120e-10
-0.192, -4.034e-10
-0.191, -3.963e-10
-0.190, -3.914e-10
-0.189, -3.851e-10
-0.188, -3.751e-10
-0.187, -3.673e-10
-0.186, -3.636e-10
-0.185, -3.579e-10
-0.184, -3.480e-10
-0.183, -3.398e-10
-0.182, -3.361e-10
-0.181, -3.314e-10
-0.180, -3.245e-10
-0.179, -3.139e-10
-0.178, -3.077e-10
-0.177, -3.048e-10
-0.176, -2.982e-10
-0.175, -2.874e-10
-0.174, -2.791e-10
-0.173, -2.751e-10
-0.172, -2.679e-10
-0.171, -2.566e-10
-0.170, -2.478e-10
-0.169, -2.443e-10
-0.168, -2.396e-10
-0.167, -2.318e-10
-0.166, -2.222e-10
-0.165, -2.160e-10
-0.164, -2.110e-10
-0.163, -2.050e-10
-0.162, -1.972e-10
-0.161, -1.910e-10
-0.160, -1.859e-10
-0.159, -1.805e-10
-0.158, -1.728e-10
-0.157, -1.645e-10
-0.156, -1.593e-10
-0.155, -1.555e-10
-0.154, -1.479e-10
-0.153, -1.399e-10
-0.152, -1.334e-10
-0.151, -1.303e-10
-0.150, -1.240e-10
-0.149, -1.138e-10
-0.148, -1.068e-10
-0.147, -1.038e-10
-0.146, -9.910e-11
-0.145, -9.042e-11
-0.144, -8.526e-11
-0.143, -8.175e-11
-0.142, -7.931e-11
-0.141, -7.161e-11
-0.140, -6.206e-11
-0.139, -5.757e-11
-0.138, -5.319e-11
-0.137, -4.529e-11
-0.136, -3.593e-11
-0.135, -3.038e-11
-0.134, -2.657e-11
-0.133, -1.916e-11
-0.132, -9.709e-12
-0.131, -2.496e-12
-0.130, 2.476e-12
-0.129, 6.960e-12
-0.128, 1.525e-11
-0.127, 2.236e-11
-0.126, 2.626e-11
-0.125, 2.997e-11
-0.124, 3.581e-11
-0.123, 4.410e-11
-0.122, 5.053e-11
-0.121, 5.365e-11
-0.120, 5.814e-11
-0.119, 6.555e-11
-0.118, 7.227e-11
-0.117, 7.588e-11
-0.116, 8.056e-11
-0.115, 8.777e-11
-0.114, 9.508e-11
-0.113, 9.937e-11
-0.112, 1.028e-10
-0.111, 1.087e-10
-0.110, 1.177e-10
-0.109, 1.226e-10
-0.108, 1.250e-10
-0.107, 1.298e-10
-0.106, 1.363e-10
-0.105, 1.423e-10
-0.104, 1.451e-10
-0.103, 1.496e-10
-0.102, 1.580e-10
-0.101, 1.629e-10
-0.100, 1.658e-10
-0.099, 1.690e-10
-0.098, 1.763e-10
-0.097, 1.813e-10
-0.096, 1.854e-10
-0.095, 1.908e-10
-0.094, 1.967e-10
-0.093, 2.030e-10
-0.092, 2.073e-10
-0.091, 2.130e-10
-0.090, 2.204e-10
-0.089, 2.250e-10
-0.088, 2.290e-10
-0.087, 2.348e-10
-0.086, 2.405e-10
-0.085, 2.468e-10
-0.084, 2.501e-10
-0.083, 2.542e-10
-0.082, 2.628e-10
-0.081, 2.700e-10
-0.080, 2.721e-10
-0.079, 2.758e-10
-0.078, 2.820e-10
-0.077, 2.890e-10
-0.076, 2.926e-10
-0.075, 2.943e-10
-0.074, 2.998e-10
-0.073, 3.067e-10
-0.072, 3.104e-10
-0.071, 3.123e-10
-0.070, 3.159e-10
-0.069, 3.245e-10
-0.068, 3.311e-10
-0.067, 3.302e-10
-0.066, 3.327e-10
-0.065, 3.426e-10
-0.064, 3.509e-10
-0.063, 3.514e-10
-0.062, 3.511e-10
-0.061, 3.592e-10
-0.060, 3.677e-10
-0.059, 3.700e-10
-0.058, 3.689e-10
-0.057, 3.771e-10
-0.056, 3.868e-10
-0.055, 3.893e-10
-0.054, 3.884e-10
-0.053, 3.936e-10
-0.052, 4.022e-10
-0.051, 4.063e-10
-0.050, 4.071e-10
-0.049, 4.107e-10
-0.048, 4.178e-10
-0.047, 4.231e-10
-0.046, 4.251e-10
-0.045, 4.288e-10
-0.044, 4.379e-10
-0.043, 4.453e-10
-0.042, 4.462e-10
-0.041, 4.485e-10
-0.040, 4.561e-10
-0.039, 4.658e-10
-0.038, 4.662e-10
-0.037, 4.682e-10
-0.036, 4.768e-10
-0.035, 4.854e-10
-0.034, 4.886e-10
-0.033, 4.903e-10
-0.032, 4.950e-10
-0.031, 5.040e-10
-0.030, 5.099e-10
-0.029, 5.092e-10
-0.028, 5.128e-10
-0.027, 5.219e-10
-0.026, 5.254e-10
-0.025, 5.259e-10
-0.024, 5.284e-10
-0.023, 5.361e-10
-0.022, 5.418e-10
-0.021, 5.429e-10
-0.020, 5.448e-10
-0.019, 5.527e-10
-0.018, 5.582e-10
-0.017, 5.581e-10
-0.016, 5.612e-10
-0.015, 5.673e-10
-0.014, 5.744e-10
-0.013, 5.755e-10
-0.012, 5.779e-10
-0.011, 5.856e-10
-0.010, 5.919e-10
-0.009, 5.924e-10
-0.008, 5.954e-10
-0.007, 6.013e-10
-0.006, 6.080e-10
-0.005, 6.100e-10
-0.004, 6.108e-10
-0.003, 6.145e-10
-0.002, 6.220e-10
-0.001, 6.274e-10
0.000, 6.276e-10
0.001, 6.311e-10
0.002, 6.354e-10
0.003, 6.399e-10
0.004, 6.431e-10
0.005, 6.459e-10
0.006, 6.486e-10
0.007, 6.529e-10
0.008, 6.555e-10
0.009, 6.609e-10
0.010, 6.644e-10
0.011, 6.689e-10
0.012, 6.728e-10
0.013, 6.756e-10
0.014, 6.789e-10
0.015, 6.841e-10
0.016, 6.893e-10
0.017, 6.911e-10
0.018, 6.938e-10
0.019, 6.973e-10
0.020, 7.027e-10
0.021, 7.087e-10
0.022, 7.117e-10
0.023, 7.160e-10
0.024, 7.195e-10
0.025, 7.236e-10
0.026, 7.279e-10
0.027, 7.309e-10
0.028, 7.339e-10
0.029, 7.373e-10
0.030, 7.419e-10
0.031, 7.431e-10
0.032, 7.454e-10
0.033, 7.494e-10
0.034, 7.540e-10
0.035, 7.580e-10
0.036, 7.592e-10
0.037, 7.648e-10
0.038, 7.710e-10
0.039, 7.711e-10
0.040, 7.727e-10
0.041, 7.780e-10
0.042, 7.823e-10
0.043, 7.817e-10
0.044, 7.847e-10
0.045, 7.907e-10
0.046, 7.949e-10
0.047, 7.963e-10
0.048, 8.019e-10
0.049, 8.098e-10
0.050, 8.172e-10
0.051, 8.176e-10
0.052, 8.160e-10
0.053, 8.236e-10
0.054, 8.301e-10
0.055, 8.312e-10
0.056, 8.282e-10
0.057, 8.354e-10
0.058, 8.435e-10
0.059, 8.465e-10
0.060, 8.430e-10
0.061, 8.425e-10
0.062, 8.515e-10
0.063, 8.600e-10
0.064, 8.589e-10
0.065, 8.563e-10
0.066, 8.616e-10
0.067, 8.692e-10
0.068, 8.717e-10
0.069, 8.681e-10
0.070, 8.745e-10
0.071, 8.833e-10
0.072, 8.872e-10
0.073, 8.860e-10
0.074, 8.881e-10
0.075, 8.966e-10
0.076, 9.026e-10
0.077, 9.008e-10
0.078, 9.031e-10
0.079, 9.102e-10
0.080, 9.157e-10
0.081, 9.133e-10
0.082, 9.121e-10
0.083, 9.194e-10
0.084, 9.281e-10
0.085, 9.260e-10
0.086, 9.250e-10
0.087, 9.330e-10
0.088, 9.411e-10
0.089, 9.404e-10
0.090, 9.380e-10
0.091, 9.443e-10
0.092, 9.514e-10
0.093, 9.534e-10
0.094, 9.519e-10
0.095, 9.558e-10
0.096, 9.653e-10
0.097, 9.683e-10
0.098, 9.667e-10
0.099, 9.682e-10
0.100, 9.741e-10
0.101, 9.816e-10
0.102, 9.831e-10
0.103, 9.846e-10
0.104, 9.906e-10
0.105, 9.971e-10
0.106, 9.976e-10
0.107, 9.936e-10
0.108, 9.957e-10
0.109, 1.004e-9
0.110, 1.007e-9
0.111, 1.006e-9
0.112, 1.008e-9
0.113, 1.018e-9
0.114, 1.023e-9
0.115, 1.020e-9
0.116, 1.019e-9
0.117, 1.026e-9
0.118, 1.034e-9
0.119, 1.032e-9
0.120, 1.030e-9
0.121, 1.035e-9
0.122, 1.041e-9
0.123, 1.044e-9
0.124, 1.042e-9
0.125, 1.045e-9
0.126, 1.052e-9
0.127, 1.056e-9
0.128, 1.057e-9
0.129, 1.059e-9
0.130, 1.063e-9
0.131, 1.068e-9
0.132, 1.066e-9
0.133, 1.065e-9
0.134, 1.070e-9
0.135, 1.077e-9
0.136, 1.079e-9
0.137, 1.077e-9
0.138, 1.083e-9
0.139, 1.094e-9
0.140, 1.101e-9
0.141, 1.099e-9
0.142, 1.102e-9
0.143, 1.111e-9
0.144, 1.113e-9
0.145, 1.112e-9
0.146, 1.113e-9
0.147, 1.119e-9
0.148, 1.125e-9
0.149, 1.128e-9
0.150, 1.134e-9
0.151, 1.142e-9
0.152, 1.146e-9
0.153, 1.146e-9
0.154, 1.146e-9
0.155, 1.154e-9
0.156, 1.159e-9
0.157, 1.162e-9
0.158, 1.164e-9
0.159, 1.166e-9
0.160, 1.170e-9
0.161, 1.173e-9
0.162, 1.174e-9
0.163, 1.172e-9
0.164, 1.176e-9
0.165, 1.184e-9
0.166, 1.188e-9
0.167, 1.189e-9
0.168, 1.192e-9
0.169, 1.202e-9
0.170, 1.207e-9
0.171, 1.207e-9
0.172, 1.208e-9
0.173, 1.216e-9
0.174, 1.220e-9
0.175, 1.218e-9
0.176, 1.221e-9
0.177, 1.227e-9
0.178, 1.234e-9
0.179, 1.235e-9
0.180, 1.234e-9
0.181, 1.240e-9
0.182, 1.248e-9
0.183, 1.247e-9
0.184, 1.247e-9
0.185, 1.260e-9
0.186, 1.263e-9
0.187, 1.265e-9
0.188, 1.263e-9
0.189, 1.268e-9
0.190, 1.275e-9
0.191, 1.279e-9
0.192, 1.278e-9
0.193, 1.279e-9
0.194, 1.283e-9
0.195, 1.289e-9
0.196, 1.291e-9
0.197, 1.291e-9
0.198, 1.295e-9
0.199, 1.300e-9
0.200, 1.303e-9
0.201, 1.303e-9
0.202, 1.308e-9
0.203, 1.313e-9
0.204, 1.319e-9
0.205, 1.319e-9
0.206, 1.328e-9
0.207, 1.335e-9
0.208, 1.336e-9
0.209, 1.337e-9
0.210, 1.346e-9
0.211, 1.358e-9
0.212, 1.364e-9
0.213, 1.364e-9
0.214, 1.370e-9
0.215, 1.381e-9
0.216, 1.383e-9
0.217, 1.389e-9
0.218, 1.397e-9
0.219, 1.406e-9
0.220, 1.409e-9
0.221, 1.411e-9
0.222, 1.417e-9
0.223, 1.425e-9
0.224, 1.430e-9
0.225, 1.435e-9
0.226, 1.440e-9
0.227, 1.445e-9
0.228, 1.455e-9
0.229, 1.461e-9
0.230, 1.464e-9
0.231, 1.471e-9
0.232, 1.473e-9
0.233, 1.479e-9
0.234, 1.488e-9
0.235, 1.496e-9
0.236, 1.500e-9
0.237, 1.500e-9
0.238, 1.504e-9
0.239, 1.511e-9
0.240, 1.519e-9
0.241, 1.523e-9
0.242, 1.521e-9
0.243, 1.523e-9
0.244, 1.530e-9
0.245, 1.539e-9
0.246, 1.542e-9
0.247, 1.545e-9
0.248, 1.553e-9
0.249, 1.558e-9
0.250, 1.561e-9
0.251, 1.567e-9
0.252, 1.573e-9
0.253, 1.578e-9
0.254, 1.582e-9
0.255, 1.589e-9
0.256, 1.594e-9
0.257, 1.606e-9
0.258, 1.610e-9
0.259, 1.609e-9
0.260, 1.611e-9
0.261, 1.618e-9
0.262, 1.625e-9
0.263, 1.627e-9
0.264, 1.633e-9
0.265, 1.645e-9
0.266, 1.649e-9
0.267, 1.656e-9
0.268, 1.663e-9
0.269, 1.669e-9
0.270, 1.676e-9
0.271, 1.682e-9
0.272, 1.684e-9
0.273, 1.694e-9
0.274, 1.693e-9
0.275, 1.695e-9
0.276, 1.703e-9
0.277, 1.713e-9
0.278, 1.719e-9
0.279, 1.720e-9
0.280, 1.725e-9
0.281, 1.733e-9
0.282, 1.743e-9
0.283, 1.746e-9
0.284, 1.746e-9
0.285, 1.753e-9
0.286, 1.760e-9
0.287, 1.764e-9
0.288, 1.765e-9
0.289, 1.775e-9
0.290, 1.786e-9
0.291, 1.793e-9
0.292, 1.797e-9
0.293, 1.804e-9
0.294, 1.812e-9
0.295, 1.823e-9
0.296, 1.829e-9
0.297, 1.832e-9
0.298, 1.840e-9
0.299, 1.849e-9
0.300, 1.850e-9
0.301, 1.852e-9
0.302, 1.859e-9
0.303, 1.867e-9
0.304, 1.871e-9
0.305, 1.868e-9
0.306, 1.875e-9
0.307, 1.890e-9
0.308, 1.892e-9
0.309, 1.890e-9
0.310, 1.896e-9
0.311, 1.907e-9
0.312, 1.913e-9
0.313, 1.913e-9
0.314, 1.921e-9
0.315, 1.929e-9
0.316, 1.937e-9
0.317, 1.939e-9
0.318, 1.941e-9
0.319, 1.954e-9
0.320, 1.959e-9
0.321, 1.956e-9
0.322, 1.962e-9
0.323, 1.973e-9
0.324, 1.981e-9
0.325, 1.983e-9
0.326, 1.986e-9
0.327, 1.992e-9
0.328, 1.999e-9
0.329, 2.002e-9
0.330, 2.003e-9
0.331, 2.010e-9
0.332, 2.015e-9
0.333, 2.023e-9
0.334, 2.024e-9
0.335, 2.031e-9
0.336, 2.040e-9
0.337, 2.043e-9
0.338, 2.045e-9
0.339, 2.052e-9
0.340, 2.062e-9
0.341, 2.071e-9
0.342, 2.075e-9
0.343, 2.082e-9
0.344, 2.093e-9
0.345, 2.099e-9
0.346, 2.099e-9
0.347, 2.107e-9
0.348, 2.124e-9
0.349, 2.126e-9
0.350, 2.124e-9
0.351, 2.131e-9
0.352, 2.139e-9
0.353, 2.138e-9
0.354, 2.139e-9
0.355, 2.151e-9
0.356, 2.163e-9
0.357, 2.170e-9
0.358, 2.170e-9
0.359, 2.174e-9
0.360, 2.185e-9
0.361, 2.193e-9
0.362, 2.198e-9
0.363, 2.204e-9
0.364, 2.209e-9
0.365, 2.213e-9
0.366, 2.214e-9
0.367, 2.216e-9
0.368, 2.225e-9
0.369, 2.234e-9
0.370, 2.237e-9
0.371, 2.237e-9
0.372, 2.237e-9
0.373, 2.242e-9
0.374, 2.249e-9
0.375, 2.258e-9
0.376, 2.265e-9
0.377, 2.273e-9
0.378, 2.281e-9
0.379, 2.285e-9
0.380, 2.292e-9
0.381, 2.297e-9
0.382, 2.302e-9
0.383, 2.306e-9
0.384, 2.312e-9
0.385, 2.317e-9
0.386, 2.323e-9
0.387, 2.326e-9
0.388, 2.331e-9
0.389, 2.338e-9
0.390, 2.344e-9
0.391, 2.347e-9
0.392, 2.351e-9
0.393, 2.359e-9
0.394, 2.367e-9
0.395, 2.370e-9
0.396, 2.378e-9
0.397, 2.382e-9
0.398, 2.388e-9
0.399, 2.392e-9
0.400, 2.404e-9
0.401, 2.413e-9
0.402, 2.413e-9
0.403, 2.416e-9
0.404, 2.421e-9
0.405, 2.428e-9
0.406, 2.429e-9
0.407, 2.432e-9
0.408, 2.442e-9
0.409, 2.452e-9
0.410, 2.451e-9
0.411, 2.453e-9
0.412, 2.460e-9
0.413, 2.472e-9
0.414, 2.477e-9
0.415, 2.478e-9
0.416, 2.481e-9
0.417, 2.486e-9
0.418, 2.495e-9
0.419, 2.501e-9
0.420, 2.503e-9
0.421, 2.506e-9
0.422, 2.517e-9
0.423, 2.518e-9
0.424, 2.519e-9
0.425, 2.525e-9
0.426, 2.534e-9
0.427, 2.539e-9
0.428, 2.539e-9
0.429, 2.543e-9
0.430, 2.558e-9
0.431, 2.566e-9
0.432, 2.562e-9
0.433, 2.559e-9
0.434, 2.572e-9
0.435, 2.581e-9
0.436, 2.581e-9
0.437, 2.583e-9
0.438, 2.588e-9
0.439, 2.596e-9
0.440, 2.596e-9
0.441, 2.601e-9
0.442, 2.608e-9
0.443, 2.618e-9
0.444, 2.618e-9
0.445, 2.617e-9
0.446, 2.625e-9
0.447, 2.633e-9
0.448, 2.638e-9
0.449, 2.642e-9
0.450, 2.647e-9
0.451, 2.657e-9
0.452, 2.664e-9
0.453, 2.669e-9
0.454, 2.669e-9
0.455, 2.673e-9
0.456, 2.685e-9
0.457, 2.688e-9
0.458, 2.693e-9
0.459, 2.694e-9
0.460, 2.700e-9
0.461, 2.709e-9
0.462, 2.714e-9
0.463, 2.722e-9
0.464, 2.730e-9
0.465, 2.735e-9
0.466, 2.738e-9
0.467, 2.740e-9
0.468, 2.743e-9
0.469, 2.749e-9
0.470, 2.750e-9
0.471, 2.752e-9
0.472, 2.761e-9
0.473, 2.767e-9
0.474, 2.773e-9
0.475, 2.775e-9
0.476, 2.777e-9
0.477, 2.783e-9
0.478, 2.789e-9
0.479, 2.796e-9
0.480, 2.796e-9
0.481, 2.802e-9
0.482, 2.811e-9
0.483, 2.812e-9
0.484, 2.809e-9
0.485, 2.813e-9
0.486, 2.825e-9
0.487, 2.831e-9
0.488, 2.831e-9
0.489, 2.837e-9
0.490, 2.842e-9
0.491, 2.843e-9
0.492, 2.842e-9
0.493, 2.844e-9
0.494, 2.851e-9
0.495, 2.859e-9
0.496, 2.862e-9
0.497, 2.861e-9
0.498, 2.865e-9
0.499, 2.879e-9
0.500, 2.863e-9
0.499, 2.775e-9
0.498, 2.709e-9
0.497, 2.661e-9
0.496, 2.626e-9
0.495, 2.587e-9
0.494, 2.545e-9
0.493, 2.516e-9
0.492, 2.486e-9
0.491, 2.458e-9
0.490, 2.426e-9
0.489, 2.398e-9
0.488, 2.374e-9
0.487, 2.350e-9
0.486, 2.324e-9
0.485, 2.306e-9
0.484, 2.288e-9
0.483, 2.268e-9
0.482, 2.246e-9
0.481, 2.229e-9
0.480, 2.218e-9
0.479, 2.200e-9
0.478, 2.179e-9
0.477, 2.159e-9
0.476, 2.144e-9
0.475, 2.130e-9
0.474, 2.114e-9
0.473, 2.098e-9
0.472, 2.084e-9
0.471, 2.071e-9
0.470, 2.054e-9
0.469, 2.037e-9
0.468, 2.026e-9
0.467, 2.015e-9
0.466, 2.000e-9
0.465, 1.982e-9
0.464, 1.965e-9
0.463, 1.951e-9
0.462, 1.935e-9
0.461, 1.916e-9
0.460, 1.904e-9
0.459, 1.892e-9
0.458, 1.880e-9
0.457, 1.868e-9
0.456, 1.856e-9
0.455, 1.842e-9
0.454, 1.832e-9
0.453, 1.819e-9
0.452, 1.803e-9
0.451, 1.795e-9
0.450, 1.782e-9
0.449, 1.765e-9
0.448, 1.753e-9
0.447, 1.742e-9
0.446, 1.732e-9
0.445, 1.720e-9
0.444, 1.706e-9
0.443, 1.695e-9
0.442, 1.683e-9
0.441, 1.669e-9
0.440, 1.656e-9
0.439, 1.646e-9
0.438, 1.641e-9
0.437, 1.630e-9
0.436, 1.618e-9
0.435, 1.608e-9
0.434, 1.600e-9
0.433, 1.590e-9
0.432, 1.576e-9
0.431, 1.563e-9
0.430, 1.553e-9
0.429, 1.544e-9
0.428, 1.528e-9
0.427, 1.515e-9
0.426, 1.506e-9
0.425, 1.498e-9
0.424, 1.483e-9
0.423, 1.468e-9
0.422, 1.462e-9
0.421, 1.457e-9
0.420, 1.446e-9
0.419, 1.432e-9
0.418, 1.423e-9
0.417, 1.418e-9
0.416, 1.406e-9
0.415, 1.392e-9
0.414, 1.382e-9
0.413, 1.377e-9
0.412, 1.367e-9
0.411, 1.352e-9
0.410, 1.344e-9
0.409, 1.340e-9
0.408, 1.332e-9
0.407, 1.316e-9
0.406, 1.307e-9
0.405, 1.298e-9
0.404, 1.290e-9
0.403, 1.281e-9
0.402, 1.270e-9
0.401, 1.261e-9
0.400, 1.252e-9
0.399, 1.244e-9
0.398, 1.234e-9
0.397, 1.226e-9
0.396, 1.219e-9
0.395, 1.209e-9
0.394, 1.199e-9
0.393, 1.191e-9
0.392, 1.181e-9
0.391, 1.171e-9
0.390, 1.159e-9
0.389, 1.151e-9
0.388, 1.144e-9
0.387, 1.137e-9
0.386, 1.128e-9
0.385, 1.122e-9
0.384, 1.115e-9
0.383, 1.106e-9
0.382, 1.100e-9
0.381, 1.093e-9
0.380, 1.083e-9
0.379, 1.074e-9
0.378, 1.066e-9
0.377, 1.058e-9
0.376, 1.049e-9
0.375, 1.041e-9
0.374, 1.034e-9
0.373, 1.027e-9
0.372, 1.019e-9
0.371, 1.010e-9
0.370, 1.002e-9
0.369, 9.949e-10
0.368, 9.885e-10
0.367, 9.797e-10
0.366, 9.705e-10
0.365, 9.655e-10
0.364, 9.591e-10
0.363, 9.484e-10
0.362, 9.386e-10
0.361, 9.342e-10
0.360, 9.296e-10
0.359, 9.172e-10
0.358, 9.037e-10
0.357, 8.988e-10
0.356, 8.988e-10
0.355, 8.899e-10
0.354, 8.763e-10
0.353, 8.704e-10
0.352, 8.694e-10
0.351, 8.630e-10
0.350, 8.491e-10
0.349, 8.392e-10
0.348, 8.391e-10
0.347, 8.348e-10
0.346, 8.201e-10
0.345, 8.093e-10
0.344, 8.078e-10
0.343, 8.046e-10
0.342, 7.938e-10
0.341, 7.805e-10
0.340, 7.770e-10
0.339, 7.759e-10
0.338, 7.677e-10
0.337, 7.572e-10
0.336, 7.523e-10
0.335, 7.482e-10
0.334, 7.411e-10
0.333, 7.292e-10
0.332, 7.231e-10
0.331, 7.209e-10
0.330, 7.141e-10
0.329, 7.039e-10
0.328, 6.951e-10
0.327, 6.913e-10
0.326, 6.874e-10
0.325, 6.766e-10
0.324, 6.668e-10
0.323, 6.650e-10
0.322, 6.625e-10
0.321, 6.544e-10
0.320, 6.454e-10
0.319, 6.417e-10
0.318, 6.397e-10
0.317, 6.309e-10
0.316, 6.205e-10
0.315, 6.164e-10
0.314, 6.158e-10
0.313, 6.094e-10
0.312, 5.986e-10
0.311, 5.929e-10
0.310, 5.918e-10
0.309, 5.842e-10
0.308, 5.732e-10
0.307, 5.648e-10
0.306, 5.641e-10
0.305, 5.586e-10
0.304, 5.469e-10
0.303, 5.392e-10
0.302, 5.367e-10
0.301, 5.336e-10
0.300, 5.240e-10
0.299, 5.152e-10
0.298, 5.131e-10
0.297, 5.107e-10
0.296, 5.012e-10
0.295, 4.907e-10
0.294, 4.869e-10
0.293, 4.828e-10
0.292, 4.741e-10
0.291, 4.649e-10
0.290, 4.602e-10
0.289, 4.557e-10
0.288, 4.470e-10
0.287, 4.377e-10
0.286, 4.317e-10
0.285, 4.269e-10
0.284, 4.207e-10
0.283, 4.141e-10
0.282, 4.092e-10
0.281, 4.063e-10
0.280, 4.004e-10
0.279, 3.950e-10
0.278, 3.906e-10
0.277, 3.844e-10
0.276, 3.792e-10
0.275, 3.737e-10
0.274, 3.685e-10
0.273, 3.638e-10
0.272, 3.576e-10
0.271, 3.517e-10
0.270, 3.466e-10
0.269, 3.440e-10
0.268, 3.387e-10
0.267, 3.307e-10
0.266, 3.260e-10
0.265, 3.227e-10
0.264, 3.186e-10
0.263, 3.130e-10
0.262, 3.070e-10
0.261, 3.037e-10
0.260, 2.993e-10
0.259, 2.921e-10
0.258, 2.865e-10
0.257, 2.845e-10
0.256, 2.793e-10
0.255, 2.714e-10
0.254, 2.663e-10
0.253, 2.629e-10
0.252, 2.574e-10
0.251, 2.508e-10
0.250, 2.449e-10
0.249, 2.412e-10
0.248, 2.354e-10
0.247, 2.276e-10
0.246, 2.234e-10
0.245, 2.220e-10
0.244, 2.164e-10
0.243, 2.092e-10
0.242, 2.051e-10
0.241, 2.026e-10
0.240, 1.964e-10
0.239, 1.884e-10
0.238, 1.831e-10
0.237, 1.824e-10
0.236, 1.780e-10
0.235, 1.699e-10
0.234, 1.642e-10
0.233, 1.625e-10
0.232, 1.591e-10
0.231, 1.514e-10
0.230, 1.456e-10
0.229, 1.445e-10
0.228, 1.438e-10
0.227, 1.372e-10
0.226, 1.294e-10
0.225, 1.280e-10
0.224, 1.280e-10
0.223, 1.219e-10
0.222, 1.125e-10
0.221, 1.089e-10
0.220, 1.090e-10
0.219, 1.047e-10
0.218, 9.440e-11
0.217, 8.894e-11
0.216, 8.972e-11
0.215, 8.719e-11
0.214, 7.607e-11
0.213, 6.915e-11
0.212, 7.081e-11
0.211, 6.915e-11
0.210, 5.843e-11
0.209, 5.102e-11
0.208, 5.151e-11
0.207, 5.122e-11
0.206, 4.342e-11
0.205, 3.708e-11
0.204, 3.542e-11
0.203, 3.445e-11
0.202, 2.772e-11
0.201, 2.158e-11
0.200, 1.895e-11
0.199, 1.603e-11
0.198, 1.086e-11
0.197, 5.693e-12
0.196, 1.794e-12
0.195, -3.568e-12
0.194, -1.039e-11
0.193, -1.419e-11
0.192, -1.653e-11
0.191, -2.180e-11
0.190, -2.843e-11
0.189, -3.223e-11
0.188, -3.554e-11
0.187, -4.237e-11
0.186, -4.860e-11
0.185, -5.026e-11
0.184, -5.143e-11
0.183, -5.787e-11
0.182, -6.323e-11
0.181, -6.752e-11
0.180, -7.112e-11
0.179, -7.541e-11
0.178, -8.029e-11
0.177, -8.389e-11
0.176, -8.613e-11
0.175, -9.023e-11
0.174, -9.403e-11
0.173, -9.764e-11
0.172, -1.017e-10
0.171, -1.043e-10
0.170, -1.081e-10
0.169, -1.144e-10
0.168, -1.194e-10
0.167, -1.210e-10
0.166, -1.243e-10
0.165, -1.303e-10
0.164, -1.349e-10
0.163, -1.365e-10
0.162, -1.387e-10
0.161, -1.436e-10
0.160, -1.501e-10
0.159, -1.520e-10
0.158, -1.532e-10
0.157, -1.585e-10
0.156, -1.663e-10
0.155, -1.689e-10
0.154, -1.683e-10
0.153, -1.737e-10
0.152, -1.818e-10
0.151, -1.855e-10
0.150, -1.842e-10
0.149, -1.896e-10
0.148, -1.988e-10
0.147, -2.011e-10
0.146, -2.001e-10
0.145, -2.044e-10
0.144, -2.136e-10
0.143, -2.170e-10
0.142, -2.159e-10
0.141, -2.197e-10
0.140, -2.284e-10
0.139, -2.335e-10
0.138, -2.314e-10
0.137, -2.335e-10
0.136, -2.432e-10
0.135, -2.508e-10
0.134, -2.492e-10
0.133, -2.520e-10
0.132, -2.603e-10
0.131, -2.676e-10
0.130, -2.679e-10
0.129, -2.686e-10
0.128, -2.762e-10
0.127, -2.846e-10
0.126, -2.854e-10
0.125, -2.861e-10
0.124, -2.916e-10
0.123, -2.991e-10
0.122, -3.016e-10
0.121, -3.019e-10
0.120, -3.085e-10
0.119, -3.169e-10
0.118, -3.198e-10
0.117, -3.198e-10
0.116, -3.234e-10
0.115, -3.312e-10
0.114, -3.341e-10
0.113, -3.323e-10
0.112, -3.364e-10
0.111, -3.437e-10
0.110, -3.470e-10
0.109, -3.461e-10
0.108, -3.498e-10
0.107, -3.550e-10
0.106, -3.597e-10
0.105, -3.607e-10
0.104, -3.628e-10
0.103, -3.698e-10
0.102, -3.777e-10
0.101, -3.777e-10
0.100, -3.799e-10
0.099, -3.847e-10
0.098, -3.909e-10
0.097, -3.944e-10
0.096, -3.950e-10
0.095, -3.989e-10
0.094, -4.053e-10
0.093, -4.095e-10
0.092, -4.113e-10
0.091, -4.158e-10
0.090, -4.209e-10
0.089, -4.240e-10
0.088, -4.255e-10
0.087, -4.302e-10
0.086, -4.363e-10
0.085, -4.395e-10
0.084, -4.425e-10
0.083, -4.467e-10
0.082, -4.523e-10
0.081, -4.548e-10
0.080, -4.575e-10
0.079, -4.625e-10
0.078, -4.689e-10
0.077, -4.711e-10
0.076, -4.712e-10
0.075, -4.766e-10
0.074, -4.843e-10
0.073, -4.872e-10
0.072, -4.887e-10
0.071, -4.941e-10
0.070, -5.019e-10
0.069, -5.062e-10
0.068, -5.071e-10
0.067, -5.103e-10
0.066, -5.209e-10
0.065, -5.236e-10
0.064, -5.237e-10
0.063, -5.289e-10
0.062, -5.400e-10
0.061, -5.419e-10
0.060, -5.427e-10
0.059, -5.487e-10
0.058, -5.572e-10
0.057, -5.624e-10
0.056, -5.632e-10
0.055, -5.657e-10
0.054, -5.733e-10
0.053, -5.773e-10
0.052, -5.778e-10
0.051, -5.807e-10
0.050, -5.877e-10
0.049, -5.926e-10
0.048, -5.932e-10
0.047, -5.964e-10
0.046, -6.029e-10
0.045, -6.096e-10
0.044, -6.111e-10
0.043, -6.135e-10
0.042, -6.193e-10
0.041, -6.273e-10
0.040, -6.294e-10
0.039, -6.307e-10
0.038, -6.353e-10
0.037, -6.456e-10
0.036, -6.497e-10
0.035, -6.508e-10
0.034, -6.543e-10
0.033, -6.637e-10
0.032, -6.685e-10
0.031, -6.697e-10
0.030, -6.734e-10
0.029, -6.821e-10
0.028, -6.873e-10
0.027, -6.888e-10
0.026, -6.928e-10
0.025, -7.010e-10
0.024, -7.053e-10
0.023, -7.078e-10
0.022, -7.122e-10
0.021, -7.190e-10
0.020, -7.252e-10
0.019, -7.289e-10
0.018, -7.344e-10
0.017, -7.412e-10
0.016, -7.472e-10
0.015, -7.514e-10
0.014, -7.558e-10
0.013, -7.627e-10
0.012, -7.669e-10
0.011, -7.702e-10
0.010, -7.764e-10
0.009, -7.823e-10
0.008, -7.888e-10
0.007, -7.917e-10
0.006, -7.970e-10
0.005, -8.027e-10
0.004, -8.085e-10
0.003, -8.129e-10
0.002, -8.171e-10
0.001, -8.234e-10
-0.000, -8.273e-10
-0.001, -8.317e-10
-0.002, -8.374e-10
-0.003, -8.439e-10
-0.004, -8.503e-10
-0.005, -8.557e-10
-0.006, -8.595e-10
-0.007, -8.651e-10
-0.008, -8.727e-10
-0.009, -8.784e-10
-0.010, -8.826e-10
-0.011, -8.879e-10
-0.012, -8.951e-10
-0.013, -9.016e-10
-0.014, -9.079e-10
-0.015, -9.124e-10
-0.016, -9.207e-10
-0.017, -9.284e-10
-0.018, -9.345e-10
-0.019, -9.378e-10
-0.020, -9.427e-10
-0.021, -9.498e-10
-0.022, -9.569e-10
-0.023, -9.614e-10
-0.024, -9.669e-10
-0.025, -9.770e-10
-0.026, -9.837e-10
-0.027, -9.895e-10
-0.028, -9.955e-10
-0.029, -1.004e-9
-0.030, -1.013e-9
-0.031, -1.018e-9
-0.032, -1.025e-9
-0.033, -1.033e-9
-0.034, -1.039e-9
-0.035, -1.045e-9
-0.036, -1.052e-9
-0.037, -1.060e-9
-0.038, -1.065e-9
-0.039, -1.071e-9
-0.040, -1.078e-9
-0.041, -1.086e-9
-0.042, -1.090e-9
-0.043, -1.096e-9
-0.044, -1.105e-9
-0.045, -1.113e-9
-0.046, -1.118e-9
-0.047, -1.122e-9
-0.048, -1.133e-9
-0.049, -1.142e-9
-0.050, -1.146e-9
-0.051, -1.150e-9
-0.052, -1.159e-9
-0.053, -1.170e-9
-0.054, -1.175e-9
-0.055, -1.179e-9
-0.056, -1.188e-9
-0.057, -1.199e-9
-0.058, -1.207e-9
-0.059, -1.212e-9
-0.060, -1.221e-9
-0.061, -1.232e-9
-0.062, -1.241e-9
-0.063, -1.248e-9
-0.064, -1.256e-9
-0.065, -1.266e-9
-0.066, -1.274e-9
-0.067, -1.282e-9
-0.068, -1.289e-9
-0.069, -1.296e-9
-0.070, -1.305e-9
-0.071, -1.314e-9
-0.072, -1.319e-9
-0.073, -1.327e-9
-0.074, -1.335e-9
-0.075, -1.344e-9
-0.076, -1.349e-9
-0.077, -1.356e-9
-0.078, -1.367e-9
-0.079, -1.378e-9
-0.080, -1.384e-9
-0.081, -1.391e-9
-0.082, -1.402e-9
-0.083, -1.414e-9
-0.084, -1.420e-9
-0.085, -1.423e-9
-0.086, -1.434e-9
-0.087, -1.447e-9
-0.088, -1.456e-9
-0.089, -1.460e-9
-0.090, -1.468e-9
-0.091, -1.483e-9
-0.092, -1.494e-9
-0.093, -1.500e-9
-0.094, -1.508e-9
-0.095, -1.522e-9
-0.096, -1.533e-9
-0.097, -1.539e-9
-0.098, -1.545e-9
-0.099, -1.556e-9
-0.100, -1.568e-9
-0.101, -1.576e-9
-0.102, -1.581e-9
-0.103, -1.593e-9
-0.104, -1.604e-9
-0.105, -1.614e-9
-0.106, -1.619e-9
-0.107, -1.627e-9
-0.108, -1.639e-9
-0.109, -1.651e-9
-0.110, -1.658e-9
-0.111, -1.663e-9
-0.112, -1.674e-9
-0.113, -1.687e-9
-0.114, -1.695e-9
-0.115, -1.700e-9
-0.116, -1.712e-9
-0.117, -1.729e-9
-0.118, -1.738e-9
-0.119, -1.744e-9
-0.120, -1.755e-9
-0.121, -1.770e-9
-0.122, -1.781e-9
-0.123, -1.786e-9
-0.124, -1.793e-9
-0.125, -1.807e-9
-0.126, -1.820e-9
-0.127, -1.825e-9
-0.128, -1.830e-9
-0.129, -1.846e-9
-0.130, -1.862e-9
-0.131, -1.867e-9
-0.132, -1.874e-9
-0.133, -1.888e-9
-0.134, -1.903e-9
-0.135, -1.910e-9
-0.136, -1.915e-9
-0.137, -1.928e-9
-0.138, -1.943e-9
-0.139, -1.951e-9
-0.140, -1.958e-9
-0.141, -1.969e-9
-0.142, -1.985e-9
-0.143, -1.997e-9
-0.144, -2.007e-9
-0.145, -2.017e-9
-0.146, -2.029e-9
-0.147, -2.039e-9
-0.148, -2.048e-9
-0.149, -2.059e-9
-0.150, -2.070e-9
-0.151, -2.081e-9
-0.152, -2.095e-9
-0.153, -2.107e-9
-0.154, -2.115e-9
-0.155, -2.127e-9
-0.156, -2.140e-9
-0.157, -2.149e-9
-0.158, -2.159e-9
-0.159, -2.169e-9
-0.160, -2.181e-9
-0.161, -2.193e-9
-0.162, -2.201e-9
-0.163, -2.214e-9
-0.164, -2.226e-9
-0.165, -2.238e-9
-0.166, -2.250e-9
-0.167, -2.260e-9
-0.168, -2.271e-9
-0.169, -2.283e-9
-0.170, -2.292e-9
-0.171, -2.301e-9
-0.172, -2.313e-9
-0.173, -2.327e-9
-0.174, -2.340e-9
-0.175, -2.350e-9
-0.176, -2.361e-9
-0.177, -2.378e-9
-0.178, -2.389e-9
-0.179, -2.396e-9
-0.180, -2.405e-9
-0.181, -2.420e-9
-0.182, -2.433e-9
-0.183, -2.442e-9
-0.184, -2.451e-9
-0.185, -2.468e-9
-0.186, -2.484e-9
-0.187, -2.493e-9
-0.188, -2.503e-9
-0.189, -2.517e-9
-0.190, -2.530e-9
-0.191, -2.540e-9
-0.192, -2.549e-9
-0.193, -2.561e-9
-0.194, -2.574e-9
-0.195, -2.584e-9
-0.196, -2.594e-9
-0.197, -2.607e-9
-0.198, -2.619e-9
-0.199, -2.631e-9
-0.200, -2.643e-9
-0.201, -2.656e-9
-0.202, -2.667e-9
-0.203, -2.676e-9
-0.204, -2.691e-9
-0.205, -2.700e-9
-0.206, -2.713e-9
-0.207, -2.725e-9
-0.208, -2.740e-9
-0.209, -2.752e-9
-0.210, -2.761e-9
-0.211, -2.772e-9
-0.212, -2.782e-9
-0.213, -2.794e-9
-0.214, -2.806e-9
-0.215, -2.819e-9
-0.216, -2.831e-9
-0.217, -2.840e-9
-0.218, -2.853e-9
-0.219, -2.867e-9
-0.220, -2.878e-9
-0.221, -2.888e-9
-0.222, -2.901e-9
-0.223, -2.913e-9
-0.224, -2.923e-9
-0.225, -2.930e-9
-0.226, -2.942e-9
-0.227, -2.957e-9
-0.228, -2.970e-9
-0.229, -2.978e-9
-0.230, -2.989e-9
-0.231, -3.004e-9
-0.232, -3.016e-9
-0.233, -3.025e-9
-0.234, -3.036e-9
-0.235, -3.052e-9
-0.236, -3.065e-9
-0.237, -3.072e-9
-0.238, -3.084e-9
-0.239, -3.098e-9
-0.240, -3.111e-9
-0.241, -3.121e-9
-0.242, -3.129e-9
-0.243, -3.142e-9
-0.244, -3.155e-9
-0.245, -3.165e-9
-0.246, -3.176e-9
-0.247, -3.188e-9
-0.248, -3.204e-9
-0.249, -3.217e-9
-0.250, -3.226e-9
-0.251, -3.236e-9
-0.252, -3.250e-9
-0.253, -3.261e-9
-0.254, -3.273e-9
-0.255, -3.286e-9
-0.256, -3.298e-9
-0.257, -3.310e-9
-0.258, -3.321e-9
-0.259, -3.335e-9
-0.260, -3.348e-9
-0.261, -3.357e-9
-0.262, -3.368e-9
-0.263, -3.383e-9
-0.264, -3.400e-9
-0.265, -3.409e-9
-0.266, -3.419e-9
-0.267, -3.437e-9
-0.268, -3.452e-9
-0.269, -3.456e-9
-0.270, -3.465e-9
-0.271, -3.482e-9
-0.272, -3.495e-9
-0.273, -3.503e-9
-0.274, -3.508e-9
-0.275, -3.522e-9
-0.276, -3.540e-9
-0.277, -3.551e-9
-0.278, -3.554e-9
-0.279, -3.565e-9
-0.280, -3.587e-9
-0.281, -3.600e-9
-0.282, -3.606e-9
-0.283, -3.619e-9
-0.284, -3.637e-9
-0.285, -3.650e-9
-0.286, -3.657e-9
-0.287, -3.671e-9
-0.288, -3.691e-9
-0.289, -3.709e-9
-0.290, -3.713e-9
-0.291, -3.721e-9
-0.292, -3.737e-9
-0.293, -3.753e-9
-0.294, -3.760e-9
-0.295, -3.763e-9
-0.296, -3.779e-9
-0.297, -3.800e-9
-0.298, -3.809e-9
-0.299, -3.814e-9
-0.300, -3.830e-9
-0.301, -3.851e-9
-0.302, -3.861e-9
-0.303, -3.866e-9
-0.304, -3.878e-9
-0.305, -3.898e-9
-0.306, -3.912e-9
-0.307, -3.918e-9
-0.308, -3.931e-9
-0.309, -3.952e-9
-0.310, -3.967e-9
-0.311, -3.972e-9
-0.312, -3.980e-9
-0.313, -3.998e-9
-0.314, -4.012e-9
-0.315, -4.020e-9
-0.316, -4.030e-9
-0.317, -4.044e-9
-0.318, -4.062e-9
-0.319, -4.073e-9
-0.320, -4.079e-9
-0.321, -4.094e-9
-0.322, -4.113e-9
-0.323, -4.125e-9
-0.324, -4.132e-9
-0.325, -4.148e-9
-0.326, -4.169e-9
-0.327, -4.181e-9
-0.328, -4.187e-9
-0.329, -4.199e-9
-0.330, -4.218e-9
-0.331, -4.232e-9
-0.332, -4.236e-9
-0.333, -4.246e-9
-0.334, -4.266e-9
-0.335, -4.280e-9
-0.336, -4.283e-9
-0.337, -4.294e-9
-0.338, -4.313e-9
-0.339, -4.328e-9
-0.340, -4.337e-9
-0.341, -4.348e-9
-0.342, -4.363e-9
-0.343, -4.377e-9
-0.344, -4.385e-9
-0.345, -4.398e-9
-0.346, -4.411e-9
-0.347, -4.428e-9
-0.348, -4.440e-9
-0.349, -4.454e-9
-0.350, -4.468e-9
-0.351, -4.483e-9
-0.352, -4.493e-9
-0.353, -4.505e-9
-0.354, -4.522e-9
-0.355, -4.537e-9
-0.356, -4.552e-9
-0.357, -4.567e-9
-0.358, -4.586e-9
-0.359, -4.602e-9
-0.360, -4.615e-9
-0.361, -4.628e-9
-0.362, -4.645e-9
-0.363, -4.669e-9
-0.364, -4.684e-9
-0.365, -4.696e-9
-0.366, -4.710e-9
-0.367, -4.727e-9
-0.368, -4.741e-9
-0.369, -4.753e-9
-0.370, -4.767e-9
-0.371, -4.790e-9
-0.372, -4.806e-9
-0.373, -4.817e-9
-0.374, -4.830e-9
-0.375, -4.852e-9
-0.376, -4.868e-9
-0.377, -4.880e-9
-0.378, -4.892e-9
-0.379, -4.908e-9
-0.380, -4.928e-9
-0.381, -4.942e-9
-0.382, -4.952e-9
-0.383, -4.967e-9
-0.384, -4.986e-9
-0.385, -5.002e-9
-0.386, -5.010e-9
-0.387, -5.022e-9
-0.388, -5.040e-9
-0.389, -5.060e-9
-0.390, -5.074e-9
-0.391, -5.088e-9
-0.392, -5.106e-9
-0.393, -5.126e-9
-0.394, -5.138e-9
-0.395, -5.151e-9
-0.396, -5.169e-9
-0.397, -5.184e-9
-0.398, -5.199e-9
-0.399, -5.211e-9
-0.400, -5.226e-9
-0.401, -5.243e-9
-0.402, -5.259e-9
-0.403, -5.274e-9
-0.404, -5.286e-9
-0.405, -5.301e-9
-0.406, -5.318e-9
-0.407, -5.332e-9
-0.408, -5.347e-9
-0.409, -5.359e-9
-0.410, -5.375e-9
-0.411, -5.388e-9
-0.412, -5.404e-9
-0.413, -5.418e-9
-0.414, -5.430e-9
-0.415, -5.446e-9
-0.416, -5.464e-9
-0.417, -5.478e-9
-0.418, -5.493e-9
-0.419, -5.506e-9
-0.420, -5.522e-9
-0.421, -5.534e-9
-0.422, -5.546e-9
-0.423, -5.560e-9
-0.424, -5.577e-9
-0.425, -5.593e-9
-0.426, -5.606e-9
-0.427, -5.625e-9
-0.428, -5.644e-9
-0.429, -5.665e-9
-0.430, -5.673e-9
-0.431, -5.688e-9
-0.432, -5.702e-9
-0.433, -5.717e-9
-0.434, -5.731e-9
-0.435, -5.741e-9
-0.436, -5.754e-9
-0.437, -5.772e-9
-0.438, -5.785e-9
-0.439, -5.794e-9
-0.440, -5.809e-9
-0.441, -5.826e-9
-0.442, -5.841e-9
-0.443, -5.849e-9
-0.444, -5.861e-9
-0.445, -5.880e-9
-0.446, -5.897e-9
-0.447, -5.913e-9
-0.448, -5.921e-9
-0.449, -5.940e-9
-0.450, -5.961e-9
-0.451, -5.972e-9
-0.452, -5.982e-9
-0.453, -5.998e-9
-0.454, -6.019e-9
-0.455, -6.036e-9
-0.456, -6.046e-9
-0.457, -6.057e-9
-0.458, -6.076e-9
-0.459, -6.093e-9
-0.460, -6.111e-9
-0.461, -6.123e-9
-0.462, -6.140e-9
-0.463, -6.156e-9
-0.464, -6.168e-9
-0.465, -6.177e-9
-0.466, -6.192e-9
-0.467, -6.209e-9
-0.468, -6.223e-9
-0.469, -6.235e-9
-0.470, -6.249e-9
-0.471, -6.263e-9
-0.472, -6.279e-9
-0.473, -6.292e-9
-0.474, -6.307e-9
-0.475, -6.326e-9
-0.476, -6.342e-9
-0.477, -6.355e-9
-0.478, -6.371e-9
-0.479, -6.389e-9
-0.480, -6.406e-9
-0.481, -6.420e-9
-0.482, -6.432e-9
-0.483, -6.447e-9
-0.484, -6.462e-9
-0.485, -6.473e-9
-0.486, -6.484e-9
-0.487, -6.500e-9
-0.488, -6.517e-9
-0.489, -6.532e-9
-0.490, -6.547e-9
-0.491, -6.563e-9
-0.492, -6.581e-9
-0.493, -6.598e-9
-0.494, -6.609e-9
-0.495, -6.629e-9
-0.496, -6.647e-9
-0.497, -6.658e-9
-0.498, -6.672e-9
-0.499, -6.690e-9
