Nov. 20, 2024   15:47:57
Cyclic Voltammetry
File: +12 2319-1 fto cv_cells_dark_surface_1.bin
Data Source:  Experiment
Instrument Model:  CHI920C
Ref. Electrode: 
Header: 
Note: 

Init E (V) = -0.5
High E (V) = 0.5
Low E (V) = -0.5
Init P/N = P
Scan Rate (V/s) = 0.05
Segment = 2
Sample Interval (V) = 0.001
Quiet Time (sec) = 10
Sensitivity (A/V) = 1e-7

Results:

Channel 1:
Segment 1:

Segment 2:

Potential/V, Current/A

-0.500, -3.358e-9
-0.499, -3.289e-9
-0.498, -3.236e-9
-0.497, -3.196e-9
-0.496, -3.161e-9
-0.495, -3.133e-9
-0.494, -3.106e-9
-0.493, -3.081e-9
-0.492, -3.058e-9
-0.491, -3.036e-9
-0.490, -3.014e-9
-0.489, -2.995e-9
-0.488, -2.974e-9
-0.487, -2.955e-9
-0.486, -2.936e-9
-0.485, -2.918e-9
-0.484, -2.902e-9
-0.483, -2.885e-9
-0.482, -2.869e-9
-0.481, -2.853e-9
-0.480, -2.837e-9
-0.479, -2.821e-9
-0.478, -2.805e-9
-0.477, -2.791e-9
-0.476, -2.777e-9
-0.475, -2.763e-9
-0.474, -2.749e-9
-0.473, -2.736e-9
-0.472, -2.721e-9
-0.471, -2.707e-9
-0.470, -2.694e-9
-0.469, -2.680e-9
-0.468, -2.666e-9
-0.467, -2.653e-9
-0.466, -2.642e-9
-0.465, -2.628e-9
-0.464, -2.616e-9
-0.463, -2.605e-9
-0.462, -2.592e-9
-0.461, -2.580e-9
-0.460, -2.568e-9
-0.459, -2.557e-9
-0.458, -2.546e-9
-0.457, -2.535e-9
-0.456, -2.524e-9
-0.455, -2.513e-9
-0.454, -2.502e-9
-0.453, -2.491e-9
-0.452, -2.478e-9
-0.451, -2.465e-9
-0.450, -2.453e-9
-0.449, -2.442e-9
-0.448, -2.433e-9
-0.447, -2.422e-9
-0.446, -2.412e-9
-0.445, -2.399e-9
-0.444, -2.389e-9
-0.443, -2.379e-9
-0.442, -2.368e-9
-0.441, -2.357e-9
-0.440, -2.346e-9
-0.439, -2.335e-9
-0.438, -2.324e-9
-0.437, -2.314e-9
-0.436, -2.305e-9
-0.435, -2.296e-9
-0.434, -2.286e-9
-0.433, -2.277e-9
-0.432, -2.268e-9
-0.431, -2.259e-9
-0.430, -2.248e-9
-0.429, -2.238e-9
-0.428, -2.227e-9
-0.427, -2.218e-9
-0.426, -2.208e-9
-0.425, -2.197e-9
-0.424, -2.186e-9
-0.423, -2.176e-9
-0.422, -2.169e-9
-0.421, -2.160e-9
-0.420, -2.151e-9
-0.419, -2.142e-9
-0.418, -2.132e-9
-0.417, -2.125e-9
-0.416, -2.115e-9
-0.415, -2.104e-9
-0.414, -2.095e-9
-0.413, -2.084e-9
-0.412, -2.074e-9
-0.411, -2.065e-9
-0.410, -2.056e-9
-0.409, -2.049e-9
-0.408, -2.040e-9
-0.407, -2.031e-9
-0.406, -2.023e-9
-0.405, -2.013e-9
-0.404, -2.004e-9
-0.403, -1.994e-9
-0.402, -1.985e-9
-0.401, -1.977e-9
-0.400, -1.968e-9
-0.399, -1.959e-9
-0.398, -1.950e-9
-0.397, -1.942e-9
-0.396, -1.933e-9
-0.395, -1.924e-9
-0.394, -1.917e-9
-0.393, -1.909e-9
-0.392, -1.899e-9
-0.391, -1.890e-9
-0.390, -1.882e-9
-0.389, -1.874e-9
-0.388, -1.865e-9
-0.387, -1.856e-9
-0.386, -1.846e-9
-0.385, -1.837e-9
-0.384, -1.828e-9
-0.383, -1.818e-9
-0.382, -1.811e-9
-0.381, -1.804e-9
-0.380, -1.798e-9
-0.379, -1.789e-9
-0.378, -1.782e-9
-0.377, -1.775e-9
-0.376, -1.766e-9
-0.375, -1.756e-9
-0.374, -1.748e-9
-0.373, -1.738e-9
-0.372, -1.729e-9
-0.371, -1.722e-9
-0.370, -1.713e-9
-0.369, -1.704e-9
-0.368, -1.696e-9
-0.367, -1.690e-9
-0.366, -1.681e-9
-0.365, -1.673e-9
-0.364, -1.665e-9
-0.363, -1.656e-9
-0.362, -1.648e-9
-0.361, -1.640e-9
-0.360, -1.634e-9
-0.359, -1.627e-9
-0.358, -1.619e-9
-0.357, -1.611e-9
-0.356, -1.603e-9
-0.355, -1.596e-9
-0.354, -1.589e-9
-0.353, -1.580e-9
-0.352, -1.573e-9
-0.351, -1.566e-9
-0.350, -1.557e-9
-0.349, -1.549e-9
-0.348, -1.542e-9
-0.347, -1.534e-9
-0.346, -1.527e-9
-0.345, -1.520e-9
-0.344, -1.511e-9
-0.343, -1.502e-9
-0.342, -1.494e-9
-0.341, -1.483e-9
-0.340, -1.475e-9
-0.339, -1.467e-9
-0.338, -1.459e-9
-0.337, -1.451e-9
-0.336, -1.444e-9
-0.335, -1.434e-9
-0.334, -1.428e-9
-0.333, -1.420e-9
-0.332, -1.413e-9
-0.331, -1.404e-9
-0.330, -1.397e-9
-0.329, -1.390e-9
-0.328, -1.381e-9
-0.327, -1.374e-9
-0.326, -1.366e-9
-0.325, -1.358e-9
-0.324, -1.350e-9
-0.323, -1.344e-9
-0.322, -1.337e-9
-0.321, -1.329e-9
-0.320, -1.322e-9
-0.319, -1.315e-9
-0.318, -1.309e-9
-0.317, -1.302e-9
-0.316, -1.295e-9
-0.315, -1.287e-9
-0.314, -1.279e-9
-0.313, -1.270e-9
-0.312, -1.262e-9
-0.311, -1.253e-9
-0.310, -1.247e-9
-0.309, -1.237e-9
-0.308, -1.228e-9
-0.307, -1.216e-9
-0.306, -1.207e-9
-0.305, -1.202e-9
-0.304, -1.193e-9
-0.303, -1.186e-9
-0.302, -1.180e-9
-0.301, -1.171e-9
-0.300, -1.165e-9
-0.299, -1.157e-9
-0.298, -1.149e-9
-0.297, -1.143e-9
-0.296, -1.135e-9
-0.295, -1.128e-9
-0.294, -1.123e-9
-0.293, -1.114e-9
-0.292, -1.106e-9
-0.291, -1.099e-9
-0.290, -1.091e-9
-0.289, -1.084e-9
-0.288, -1.077e-9
-0.287, -1.070e-9
-0.286, -1.063e-9
-0.285, -1.055e-9
-0.284, -1.047e-9
-0.283, -1.041e-9
-0.282, -1.033e-9
-0.281, -1.024e-9
-0.280, -1.015e-9
-0.279, -1.006e-9
-0.278, -9.985e-10
-0.277, -9.896e-10
-0.276, -9.810e-10
-0.275, -9.729e-10
-0.274, -9.665e-10
-0.273, -9.591e-10
-0.272, -9.516e-10
-0.271, -9.443e-10
-0.270, -9.375e-10
-0.269, -9.303e-10
-0.268, -9.233e-10
-0.267, -9.156e-10
-0.266, -9.083e-10
-0.265, -9.017e-10
-0.264, -8.954e-10
-0.263, -8.849e-10
-0.262, -8.777e-10
-0.261, -8.719e-10
-0.260, -8.637e-10
-0.259, -8.563e-10
-0.258, -8.484e-10
-0.257, -8.423e-10
-0.256, -8.355e-10
-0.255, -8.288e-10
-0.254, -8.215e-10
-0.253, -8.148e-10
-0.252, -8.095e-10
-0.251, -8.034e-10
-0.250, -7.957e-10
-0.249, -7.870e-10
-0.248, -7.786e-10
-0.247, -7.723e-10
-0.246, -7.633e-10
-0.245, -7.546e-10
-0.244, -7.467e-10
-0.243, -7.401e-10
-0.242, -7.331e-10
-0.241, -7.254e-10
-0.240, -7.165e-10
-0.239, -7.095e-10
-0.238, -7.014e-10
-0.237, -6.946e-10
-0.236, -6.868e-10
-0.235, -6.795e-10
-0.234, -6.725e-10
-0.233, -6.667e-10
-0.232, -6.593e-10
-0.231, -6.525e-10
-0.230, -6.463e-10
-0.229, -6.380e-10
-0.228, -6.322e-10
-0.227, -6.249e-10
-0.226, -6.171e-10
-0.225, -6.096e-10
-0.224, -6.032e-10
-0.223, -5.950e-10
-0.222, -5.890e-10
-0.221, -5.833e-10
-0.220, -5.751e-10
-0.219, -5.690e-10
-0.218, -5.620e-10
-0.217, -5.553e-10
-0.216, -5.451e-10
-0.215, -5.376e-10
-0.214, -5.289e-10
-0.213, -5.202e-10
-0.212, -5.115e-10
-0.211, -5.033e-10
-0.210, -4.952e-10
-0.209, -4.875e-10
-0.208, -4.788e-10
-0.207, -4.716e-10
-0.206, -4.648e-10
-0.205, -4.579e-10
-0.204, -4.533e-10
-0.203, -4.437e-10
-0.202, -4.364e-10
-0.201, -4.289e-10
-0.200, -4.231e-10
-0.199, -4.149e-10
-0.198, -4.076e-10
-0.197, -3.997e-10
-0.196, -3.926e-10
-0.195, -3.864e-10
-0.194, -3.786e-10
-0.193, -3.702e-10
-0.192, -3.650e-10
-0.191, -3.582e-10
-0.190, -3.526e-10
-0.189, -3.448e-10
-0.188, -3.391e-10
-0.187, -3.326e-10
-0.186, -3.260e-10
-0.185, -3.197e-10
-0.184, -3.108e-10
-0.183, -3.038e-10
-0.182, -2.981e-10
-0.181, -2.904e-10
-0.180, -2.813e-10
-0.179, -2.734e-10
-0.178, -2.653e-10
-0.177, -2.572e-10
-0.176, -2.498e-10
-0.175, -2.415e-10
-0.174, -2.331e-10
-0.173, -2.253e-10
-0.172, -2.180e-10
-0.171, -2.107e-10
-0.170, -2.027e-10
-0.169, -1.960e-10
-0.168, -1.892e-10
-0.167, -1.827e-10
-0.166, -1.771e-10
-0.165, -1.704e-10
-0.164, -1.625e-10
-0.163, -1.555e-10
-0.162, -1.482e-10
-0.161, -1.411e-10
-0.160, -1.342e-10
-0.159, -1.278e-10
-0.158, -1.197e-10
-0.157, -1.125e-10
-0.156, -1.051e-10
-0.155, -9.851e-11
-0.154, -9.218e-11
-0.153, -8.643e-11
-0.152, -7.902e-11
-0.151, -7.190e-11
-0.150, -6.664e-11
-0.149, -5.796e-11
-0.148, -4.977e-11
-0.147, -4.315e-11
-0.146, -3.359e-11
-0.145, -2.472e-11
-0.144, -1.702e-11
-0.143, -7.565e-12
-0.142, 4.289e-13
-0.141, 7.253e-12
-0.140, 1.612e-11
-0.139, 2.285e-11
-0.138, 3.045e-11
-0.137, 3.640e-11
-0.136, 4.196e-11
-0.135, 4.975e-11
-0.134, 5.677e-11
-0.133, 6.438e-11
-0.132, 7.140e-11
-0.131, 7.754e-11
-0.130, 8.553e-11
-0.129, 9.323e-11
-0.128, 9.889e-11
-0.127, 1.055e-10
-0.126, 1.124e-10
-0.125, 1.194e-10
-0.124, 1.260e-10
-0.123, 1.328e-10
-0.122, 1.396e-10
-0.121, 1.458e-10
-0.120, 1.528e-10
-0.119, 1.582e-10
-0.118, 1.624e-10
-0.117, 1.695e-10
-0.116, 1.761e-10
-0.115, 1.823e-10
-0.114, 1.899e-10
-0.113, 1.977e-10
-0.112, 2.061e-10
-0.111, 2.139e-10
-0.110, 2.220e-10
-0.109, 2.295e-10
-0.108, 2.362e-10
-0.107, 2.460e-10
-0.106, 2.533e-10
-0.105, 2.605e-10
-0.104, 2.669e-10
-0.103, 2.752e-10
-0.102, 2.856e-10
-0.101, 2.913e-10
-0.100, 2.961e-10
-0.099, 3.015e-10
-0.098, 3.085e-10
-0.097, 3.154e-10
-0.096, 3.238e-10
-0.095, 3.304e-10
-0.094, 3.367e-10
-0.093, 3.435e-10
-0.092, 3.496e-10
-0.091, 3.588e-10
-0.090, 3.646e-10
-0.089, 3.700e-10
-0.088, 3.773e-10
-0.087, 3.846e-10
-0.086, 3.911e-10
-0.085, 3.965e-10
-0.084, 4.037e-10
-0.083, 4.089e-10
-0.082, 4.150e-10
-0.081, 4.215e-10
-0.080, 4.284e-10
-0.079, 4.372e-10
-0.078, 4.468e-10
-0.077, 4.538e-10
-0.076, 4.610e-10
-0.075, 4.710e-10
-0.074, 4.787e-10
-0.073, 4.866e-10
-0.072, 4.944e-10
-0.071, 5.037e-10
-0.070, 5.117e-10
-0.069, 5.181e-10
-0.068, 5.264e-10
-0.067, 5.331e-10
-0.066, 5.387e-10
-0.065, 5.459e-10
-0.064, 5.528e-10
-0.063, 5.593e-10
-0.062, 5.651e-10
-0.061, 5.708e-10
-0.060, 5.771e-10
-0.059, 5.861e-10
-0.058, 5.919e-10
-0.057, 5.994e-10
-0.056, 6.071e-10
-0.055, 6.135e-10
-0.054, 6.203e-10
-0.053, 6.273e-10
-0.052, 6.350e-10
-0.051, 6.404e-10
-0.050, 6.461e-10
-0.049, 6.528e-10
-0.048, 6.596e-10
-0.047, 6.676e-10
-0.046, 6.737e-10
-0.045, 6.808e-10
-0.044, 6.869e-10
-0.043, 6.949e-10
-0.042, 7.027e-10
-0.041, 7.076e-10
-0.040, 7.152e-10
-0.039, 7.248e-10
-0.038, 7.304e-10
-0.037, 7.377e-10
-0.036, 7.459e-10
-0.035, 7.518e-10
-0.034, 7.583e-10
-0.033, 7.655e-10
-0.032, 7.722e-10
-0.031, 7.790e-10
-0.030, 7.850e-10
-0.029, 7.931e-10
-0.028, 8.006e-10
-0.027, 8.045e-10
-0.026, 8.109e-10
-0.025, 8.174e-10
-0.024, 8.245e-10
-0.023, 8.331e-10
-0.022, 8.397e-10
-0.021, 8.466e-10
-0.020, 8.538e-10
-0.019, 8.613e-10
-0.018, 8.685e-10
-0.017, 8.761e-10
-0.016, 8.813e-10
-0.015, 8.883e-10
-0.014, 8.956e-10
-0.013, 9.010e-10
-0.012, 9.071e-10
-0.011, 9.144e-10
-0.010, 9.213e-10
-0.009, 9.286e-10
-0.008, 9.367e-10
-0.007, 9.457e-10
-0.006, 9.530e-10
-0.005, 9.597e-10
-0.004, 9.676e-10
-0.003, 9.749e-10
-0.002, 9.807e-10
-0.001, 9.874e-10
0.000, 9.912e-10
0.001, 9.961e-10
0.002, 1.004e-9
0.003, 1.011e-9
0.004, 1.019e-9
0.005, 1.025e-9
0.006, 1.032e-9
0.007, 1.040e-9
0.008, 1.046e-9
0.009, 1.053e-9
0.010, 1.059e-9
0.011, 1.068e-9
0.012, 1.075e-9
0.013, 1.079e-9
0.014, 1.085e-9
0.015, 1.092e-9
0.016, 1.098e-9
0.017, 1.105e-9
0.018, 1.112e-9
0.019, 1.118e-9
0.020, 1.124e-9
0.021, 1.130e-9
0.022, 1.136e-9
0.023, 1.142e-9
0.024, 1.148e-9
0.025, 1.154e-9
0.026, 1.162e-9
0.027, 1.169e-9
0.028, 1.176e-9
0.029, 1.183e-9
0.030, 1.191e-9
0.031, 1.199e-9
0.032, 1.207e-9
0.033, 1.215e-9
0.034, 1.222e-9
0.035, 1.229e-9
0.036, 1.236e-9
0.037, 1.242e-9
0.038, 1.248e-9
0.039, 1.254e-9
0.040, 1.262e-9
0.041, 1.268e-9
0.042, 1.273e-9
0.043, 1.280e-9
0.044, 1.288e-9
0.045, 1.293e-9
0.046, 1.302e-9
0.047, 1.307e-9
0.048, 1.316e-9
0.049, 1.323e-9
0.050, 1.330e-9
0.051, 1.336e-9
0.052, 1.342e-9
0.053, 1.349e-9
0.054, 1.357e-9
0.055, 1.364e-9
0.056, 1.371e-9
0.057, 1.377e-9
0.058, 1.384e-9
0.059, 1.393e-9
0.060, 1.399e-9
0.061, 1.405e-9
0.062, 1.414e-9
0.063, 1.420e-9
0.064, 1.426e-9
0.065, 1.433e-9
0.066, 1.441e-9
0.067, 1.448e-9
0.068, 1.455e-9
0.069, 1.462e-9
0.070, 1.468e-9
0.071, 1.474e-9
0.072, 1.482e-9
0.073, 1.488e-9
0.074, 1.494e-9
0.075, 1.499e-9
0.076, 1.506e-9
0.077, 1.513e-9
0.078, 1.521e-9
0.079, 1.526e-9
0.080, 1.533e-9
0.081, 1.542e-9
0.082, 1.549e-9
0.083, 1.555e-9
0.084, 1.562e-9
0.085, 1.570e-9
0.086, 1.577e-9
0.087, 1.583e-9
0.088, 1.593e-9
0.089, 1.599e-9
0.090, 1.606e-9
0.091, 1.613e-9
0.092, 1.618e-9
0.093, 1.623e-9
0.094, 1.630e-9
0.095, 1.639e-9
0.096, 1.646e-9
0.097, 1.653e-9
0.098, 1.661e-9
0.099, 1.671e-9
0.100, 1.679e-9
0.101, 1.687e-9
0.102, 1.699e-9
0.103, 1.713e-9
0.104, 1.722e-9
0.105, 1.733e-9
0.106, 1.746e-9
0.107, 1.757e-9
0.108, 1.772e-9
0.109, 1.787e-9
0.110, 1.800e-9
0.111, 1.816e-9
0.112, 1.834e-9
0.113, 1.848e-9
0.114, 1.863e-9
0.115, 1.884e-9
0.116, 1.911e-9
0.117, 1.927e-9
0.118, 1.941e-9
0.119, 1.967e-9
0.120, 1.978e-9
0.121, 1.982e-9
0.122, 1.970e-9
0.123, 1.976e-9
0.124, 1.986e-9
0.125, 1.989e-9
0.126, 1.987e-9
0.127, 1.995e-9
0.128, 1.994e-9
0.129, 1.993e-9
0.130, 1.985e-9
0.131, 1.979e-9
0.132, 1.983e-9
0.133, 1.988e-9
0.134, 1.994e-9
0.135, 1.998e-9
0.136, 1.998e-9
0.137, 1.997e-9
0.138, 1.998e-9
0.139, 2.002e-9
0.140, 2.005e-9
0.141, 2.005e-9
0.142, 2.010e-9
0.143, 2.012e-9
0.144, 2.008e-9
0.145, 2.007e-9
0.146, 2.007e-9
0.147, 2.006e-9
0.148, 2.006e-9
0.149, 2.005e-9
0.150, 2.007e-9
0.151, 2.006e-9
0.152, 2.005e-9
0.153, 2.005e-9
0.154, 2.005e-9
0.155, 2.005e-9
0.156, 2.006e-9
0.157, 2.006e-9
0.158, 2.006e-9
0.159, 2.005e-9
0.160, 2.008e-9
0.161, 2.010e-9
0.162, 2.010e-9
0.163, 2.011e-9
0.164, 2.012e-9
0.165, 2.014e-9
0.166, 2.018e-9
0.167, 2.019e-9
0.168, 2.020e-9
0.169, 2.022e-9
0.170, 2.025e-9
0.171, 2.029e-9
0.172, 2.033e-9
0.173, 2.034e-9
0.174, 2.037e-9
0.175, 2.039e-9
0.176, 2.041e-9
0.177, 2.046e-9
0.178, 2.049e-9
0.179, 2.052e-9
0.180, 2.054e-9
0.181, 2.057e-9
0.182, 2.060e-9
0.183, 2.063e-9
0.184, 2.067e-9
0.185, 2.070e-9
0.186, 2.072e-9
0.187, 2.075e-9
0.188, 2.079e-9
0.189, 2.083e-9
0.190, 2.087e-9
0.191, 2.091e-9
0.192, 2.104e-9
0.193, 2.108e-9
0.194, 2.100e-9
0.195, 2.100e-9
0.196, 2.103e-9
0.197, 2.106e-9
0.198, 2.110e-9
0.199, 2.113e-9
0.200, 2.115e-9
0.201, 2.118e-9
0.202, 2.121e-9
0.203, 2.124e-9
0.204, 2.127e-9
0.205, 2.127e-9
0.206, 2.131e-9
0.207, 2.136e-9
0.208, 2.140e-9
0.209, 2.144e-9
0.210, 2.148e-9
0.211, 2.152e-9
0.212, 2.156e-9
0.213, 2.158e-9
0.214, 2.162e-9
0.215, 2.165e-9
0.216, 2.169e-9
0.217, 2.174e-9
0.218, 2.177e-9
0.219, 2.181e-9
0.220, 2.185e-9
0.221, 2.186e-9
0.222, 2.191e-9
0.223, 2.195e-9
0.224, 2.198e-9
0.225, 2.202e-9
0.226, 2.206e-9
0.227, 2.210e-9
0.228, 2.213e-9
0.229, 2.216e-9
0.230, 2.220e-9
0.231, 2.221e-9
0.232, 2.225e-9
0.233, 2.228e-9
0.234, 2.233e-9
0.235, 2.237e-9
0.236, 2.240e-9
0.237, 2.243e-9
0.238, 2.245e-9
0.239, 2.248e-9
0.240, 2.250e-9
0.241, 2.254e-9
0.242, 2.258e-9
0.243, 2.260e-9
0.244, 2.265e-9
0.245, 2.269e-9
0.246, 2.274e-9
0.247, 2.276e-9
0.248, 2.279e-9
0.249, 2.281e-9
0.250, 2.285e-9
0.251, 2.287e-9
0.252, 2.292e-9
0.253, 2.297e-9
0.254, 2.301e-9
0.255, 2.304e-9
0.256, 2.308e-9
0.257, 2.310e-9
0.258, 2.313e-9
0.259, 2.318e-9
0.260, 2.322e-9
0.261, 2.326e-9
0.262, 2.331e-9
0.263, 2.333e-9
0.264, 2.336e-9
0.265, 2.340e-9
0.266, 2.342e-9
0.267, 2.345e-9
0.268, 2.349e-9
0.269, 2.354e-9
0.270, 2.357e-9
0.271, 2.360e-9
0.272, 2.363e-9
0.273, 2.366e-9
0.274, 2.369e-9
0.275, 2.374e-9
0.276, 2.379e-9
0.277, 2.382e-9
0.278, 2.384e-9
0.279, 2.386e-9
0.280, 2.390e-9
0.281, 2.395e-9
0.282, 2.397e-9
0.283, 2.399e-9
0.284, 2.403e-9
0.285, 2.406e-9
0.286, 2.410e-9
0.287, 2.415e-9
0.288, 2.419e-9
0.289, 2.423e-9
0.290, 2.427e-9
0.291, 2.430e-9
0.292, 2.432e-9
0.293, 2.436e-9
0.294, 2.441e-9
0.295, 2.443e-9
0.296, 2.447e-9
0.297, 2.450e-9
0.298, 2.452e-9
0.299, 2.457e-9
0.300, 2.461e-9
0.301, 2.464e-9
0.302, 2.467e-9
0.303, 2.470e-9
0.304, 2.474e-9
0.305, 2.477e-9
0.306, 2.481e-9
0.307, 2.487e-9
0.308, 2.494e-9
0.309, 2.494e-9
0.310, 2.498e-9
0.311, 2.501e-9
0.312, 2.504e-9
0.313, 2.507e-9
0.314, 2.512e-9
0.315, 2.516e-9
0.316, 2.519e-9
0.317, 2.523e-9
0.318, 2.525e-9
0.319, 2.527e-9
0.320, 2.530e-9
0.321, 2.536e-9
0.322, 2.540e-9
0.323, 2.542e-9
0.324, 2.544e-9
0.325, 2.549e-9
0.326, 2.554e-9
0.327, 2.558e-9
0.328, 2.560e-9
0.329, 2.564e-9
0.330, 2.568e-9
0.331, 2.572e-9
0.332, 2.575e-9
0.333, 2.578e-9
0.334, 2.582e-9
0.335, 2.586e-9
0.336, 2.590e-9
0.337, 2.592e-9
0.338, 2.594e-9
0.339, 2.599e-9
0.340, 2.603e-9
0.341, 2.606e-9
0.342, 2.608e-9
0.343, 2.612e-9
0.344, 2.616e-9
0.345, 2.621e-9
0.346, 2.623e-9
0.347, 2.627e-9
0.348, 2.631e-9
0.349, 2.636e-9
0.350, 2.641e-9
0.351, 2.645e-9
0.352, 2.651e-9
0.353, 2.656e-9
0.354, 2.661e-9
0.355, 2.664e-9
0.356, 2.668e-9
0.357, 2.671e-9
0.358, 2.674e-9
0.359, 2.679e-9
0.360, 2.684e-9
0.361, 2.690e-9
0.362, 2.694e-9
0.363, 2.698e-9
0.364, 2.700e-9
0.365, 2.704e-9
0.366, 2.711e-9
0.367, 2.715e-9
0.368, 2.718e-9
0.369, 2.723e-9
0.370, 2.729e-9
0.371, 2.732e-9
0.372, 2.737e-9
0.373, 2.740e-9
0.374, 2.744e-9
0.375, 2.746e-9
0.376, 2.752e-9
0.377, 2.755e-9
0.378, 2.758e-9
0.379, 2.762e-9
0.380, 2.767e-9
0.381, 2.771e-9
0.382, 2.776e-9
0.383, 2.781e-9
0.384, 2.784e-9
0.385, 2.789e-9
0.386, 2.794e-9
0.387, 2.798e-9
0.388, 2.802e-9
0.389, 2.807e-9
0.390, 2.810e-9
0.391, 2.813e-9
0.392, 2.818e-9
0.393, 2.823e-9
0.394, 2.827e-9
0.395, 2.830e-9
0.396, 2.835e-9
0.397, 2.839e-9
0.398, 2.845e-9
0.399, 2.850e-9
0.400, 2.854e-9
0.401, 2.858e-9
0.402, 2.863e-9
0.403, 2.866e-9
0.404, 2.871e-9
0.405, 2.877e-9
0.406, 2.880e-9
0.407, 2.886e-9
0.408, 2.891e-9
0.409, 2.894e-9
0.410, 2.891e-9
0.411, 2.897e-9
0.412, 2.904e-9
0.413, 2.908e-9
0.414, 2.914e-9
0.415, 2.917e-9
0.416, 2.921e-9
0.417, 2.927e-9
0.418, 2.931e-9
0.419, 2.935e-9
0.420, 2.940e-9
0.421, 2.946e-9
0.422, 2.950e-9
0.423, 2.954e-9
0.424, 2.960e-9
0.425, 2.964e-9
0.426, 2.968e-9
0.427, 2.973e-9
0.428, 2.978e-9
0.429, 2.981e-9
0.430, 2.986e-9
0.431, 2.992e-9
0.432, 2.997e-9
0.433, 3.003e-9
0.434, 3.009e-9
0.435, 3.012e-9
0.436, 3.017e-9
0.437, 3.024e-9
0.438, 3.029e-9
0.439, 3.033e-9
0.440, 3.037e-9
0.441, 3.042e-9
0.442, 3.048e-9
0.443, 3.052e-9
0.444, 3.056e-9
0.445, 3.063e-9
0.446, 3.070e-9
0.447, 3.074e-9
0.448, 3.075e-9
0.449, 3.078e-9
0.450, 3.083e-9
0.451, 3.089e-9
0.452, 3.094e-9
0.453, 3.099e-9
0.454, 3.106e-9
0.455, 3.110e-9
0.456, 3.116e-9
0.457, 3.122e-9
0.458, 3.127e-9
0.459, 3.133e-9
0.460, 3.139e-9
0.461, 3.145e-9
0.462, 3.151e-9
0.463, 3.155e-9
0.464, 3.163e-9
0.465, 3.169e-9
0.466, 3.174e-9
0.467, 3.180e-9
0.468, 3.188e-9
0.469, 3.194e-9
0.470, 3.199e-9
0.471, 3.205e-9
0.472, 3.211e-9
0.473, 3.217e-9
0.474, 3.221e-9
0.475, 3.227e-9
0.476, 3.232e-9
0.477, 3.238e-9
0.478, 3.244e-9
0.479, 3.251e-9
0.480, 3.257e-9
0.481, 3.263e-9
0.482, 3.267e-9
0.483, 3.273e-9
0.484, 3.279e-9
0.485, 3.285e-9
0.486, 3.289e-9
0.487, 3.295e-9
0.488, 3.301e-9
0.489, 3.306e-9
0.490, 3.312e-9
0.491, 3.318e-9
0.492, 3.323e-9
0.493, 3.331e-9
0.494, 3.338e-9
0.495, 3.344e-9
0.496, 3.349e-9
0.497, 3.354e-9
0.498, 3.362e-9
0.499, 3.368e-9
0.500, 3.346e-9
0.499, 3.218e-9
0.498, 3.108e-9
0.497, 3.034e-9
0.496, 2.968e-9
0.495, 2.910e-9
0.494, 2.855e-9
0.493, 2.805e-9
0.492, 2.758e-9
0.491, 2.711e-9
0.490, 2.665e-9
0.489, 2.620e-9
0.488, 2.581e-9
0.487, 2.544e-9
0.486, 2.508e-9
0.485, 2.470e-9
0.484, 2.437e-9
0.483, 2.404e-9
0.482, 2.367e-9
0.481, 2.334e-9
0.480, 2.302e-9
0.479, 2.271e-9
0.478, 2.240e-9
0.477, 2.211e-9
0.476, 2.183e-9
0.475, 2.152e-9
0.474, 2.122e-9
0.473, 2.099e-9
0.472, 2.075e-9
0.471, 2.051e-9
0.470, 2.028e-9
0.469, 2.004e-9
0.468, 1.980e-9
0.467, 1.956e-9
0.466, 1.932e-9
0.465, 1.908e-9
0.464, 1.884e-9
0.463, 1.862e-9
0.462, 1.841e-9
0.461, 1.819e-9
0.460, 1.796e-9
0.459, 1.775e-9
0.458, 1.755e-9
0.457, 1.736e-9
0.456, 1.716e-9
0.455, 1.696e-9
0.454, 1.676e-9
0.453, 1.654e-9
0.452, 1.634e-9
0.451, 1.618e-9
0.450, 1.600e-9
0.449, 1.583e-9
0.448, 1.567e-9
0.447, 1.549e-9
0.446, 1.533e-9
0.445, 1.515e-9
0.444, 1.498e-9
0.443, 1.483e-9
0.442, 1.466e-9
0.441, 1.449e-9
0.440, 1.432e-9
0.439, 1.414e-9
0.438, 1.397e-9
0.437, 1.380e-9
0.436, 1.365e-9
0.435, 1.350e-9
0.434, 1.334e-9
0.433, 1.319e-9
0.432, 1.304e-9
0.431, 1.289e-9
0.430, 1.273e-9
0.429, 1.259e-9
0.428, 1.245e-9
0.427, 1.231e-9
0.426, 1.217e-9
0.425, 1.202e-9
0.424, 1.187e-9
0.423, 1.171e-9
0.422, 1.157e-9
0.421, 1.144e-9
0.420, 1.131e-9
0.419, 1.120e-9
0.418, 1.108e-9
0.417, 1.096e-9
0.416, 1.083e-9
0.415, 1.070e-9
0.414, 1.058e-9
0.413, 1.045e-9
0.412, 1.033e-9
0.411, 1.022e-9
0.410, 1.011e-9
0.409, 1.004e-9
0.408, 9.887e-10
0.407, 9.761e-10
0.406, 9.650e-10
0.405, 9.510e-10
0.404, 9.373e-10
0.403, 9.258e-10
0.402, 9.131e-10
0.401, 8.996e-10
0.400, 8.873e-10
0.399, 8.753e-10
0.398, 8.629e-10
0.397, 8.519e-10
0.396, 8.414e-10
0.395, 8.297e-10
0.394, 8.191e-10
0.393, 8.076e-10
0.392, 7.970e-10
0.391, 7.859e-10
0.390, 7.747e-10
0.389, 7.640e-10
0.388, 7.541e-10
0.387, 7.451e-10
0.386, 7.346e-10
0.385, 7.236e-10
0.384, 7.118e-10
0.383, 7.003e-10
0.382, 6.894e-10
0.381, 6.780e-10
0.380, 6.666e-10
0.379, 6.558e-10
0.378, 6.460e-10
0.377, 6.366e-10
0.376, 6.260e-10
0.375, 6.167e-10
0.374, 6.088e-10
0.373, 5.981e-10
0.372, 5.879e-10
0.371, 5.785e-10
0.370, 5.677e-10
0.369, 5.574e-10
0.368, 5.479e-10
0.367, 5.366e-10
0.366, 5.276e-10
0.365, 5.174e-10
0.364, 5.070e-10
0.363, 4.978e-10
0.362, 4.880e-10
0.361, 4.778e-10
0.360, 4.658e-10
0.359, 4.540e-10
0.358, 4.445e-10
0.357, 4.345e-10
0.356, 4.245e-10
0.355, 4.158e-10
0.354, 4.061e-10
0.353, 3.988e-10
0.352, 3.897e-10
0.351, 3.808e-10
0.350, 3.726e-10
0.349, 3.635e-10
0.348, 3.551e-10
0.347, 3.465e-10
0.346, 3.380e-10
0.345, 3.299e-10
0.344, 3.216e-10
0.343, 3.117e-10
0.342, 3.044e-10
0.341, 2.954e-10
0.340, 2.863e-10
0.339, 2.789e-10
0.338, 2.706e-10
0.337, 2.603e-10
0.336, 2.525e-10
0.335, 2.442e-10
0.334, 2.343e-10
0.333, 2.259e-10
0.332, 2.163e-10
0.331, 2.063e-10
0.330, 1.970e-10
0.329, 1.894e-10
0.328, 1.802e-10
0.327, 1.711e-10
0.326, 1.644e-10
0.325, 1.582e-10
0.324, 1.507e-10
0.323, 1.443e-10
0.322, 1.367e-10
0.321, 1.292e-10
0.320, 1.217e-10
0.319, 1.129e-10
0.318, 1.053e-10
0.317, 9.703e-11
0.316, 8.855e-11
0.315, 8.114e-11
0.314, 7.403e-11
0.313, 6.496e-11
0.312, 5.775e-11
0.311, 5.005e-11
0.310, 4.254e-11
0.309, 3.630e-11
0.308, 2.860e-11
0.307, 1.768e-11
0.306, 1.037e-11
0.305, 3.548e-12
0.304, -4.250e-12
0.303, -1.195e-11
0.302, -2.072e-11
0.301, -2.784e-11
0.300, -3.808e-11
0.299, -4.548e-11
0.298, -5.348e-11
0.297, -6.137e-11
0.296, -6.898e-11
0.295, -7.580e-11
0.294, -8.233e-11
0.293, -9.091e-11
0.292, -9.764e-11
0.291, -1.042e-10
0.290, -1.101e-10
0.289, -1.176e-10
0.288, -1.244e-10
0.287, -1.314e-10
0.286, -1.378e-10
0.285, -1.456e-10
0.284, -1.513e-10
0.283, -1.583e-10
0.282, -1.651e-10
0.281, -1.717e-10
0.280, -1.787e-10
0.279, -1.858e-10
0.278, -1.915e-10
0.277, -1.979e-10
0.276, -2.051e-10
0.275, -2.129e-10
0.274, -2.213e-10
0.273, -2.289e-10
0.272, -2.345e-10
0.271, -2.424e-10
0.270, -2.501e-10
0.269, -2.565e-10
0.268, -2.645e-10
0.267, -2.729e-10
0.266, -2.795e-10
0.265, -2.864e-10
0.264, -2.935e-10
0.263, -3.004e-10
0.262, -3.069e-10
0.261, -3.131e-10
0.260, -3.202e-10
0.259, -3.278e-10
0.258, -3.335e-10
0.257, -3.391e-10
0.256, -3.447e-10
0.255, -3.498e-10
0.254, -3.558e-10
0.253, -3.626e-10
0.252, -3.674e-10
0.251, -3.736e-10
0.250, -3.792e-10
0.249, -3.853e-10
0.248, -3.916e-10
0.247, -3.985e-10
0.246, -4.044e-10
0.245, -4.105e-10
0.244, -4.177e-10
0.243, -4.235e-10
0.242, -4.302e-10
0.241, -4.359e-10
0.240, -4.422e-10
0.239, -4.483e-10
0.238, -4.556e-10
0.237, -4.615e-10
0.236, -4.669e-10
0.235, -4.740e-10
0.234, -4.799e-10
0.233, -4.877e-10
0.232, -4.940e-10
0.231, -5.017e-10
0.230, -5.087e-10
0.229, -5.155e-10
0.228, -5.223e-10
0.227, -5.284e-10
0.226, -5.353e-10
0.225, -5.410e-10
0.224, -5.465e-10
0.223, -5.520e-10
0.222, -5.576e-10
0.221, -5.644e-10
0.220, -5.709e-10
0.219, -5.764e-10
0.218, -5.818e-10
0.217, -5.865e-10
0.216, -5.934e-10
0.215, -5.986e-10
0.214, -6.048e-10
0.213, -6.110e-10
0.212, -6.166e-10
0.211, -6.222e-10
0.210, -6.273e-10
0.209, -6.322e-10
0.208, -6.379e-10
0.207, -6.436e-10
0.206, -6.497e-10
0.205, -6.545e-10
0.204, -6.589e-10
0.203, -6.641e-10
0.202, -6.711e-10
0.201, -6.792e-10
0.200, -6.843e-10
0.199, -6.901e-10
0.198, -6.955e-10
0.197, -7.024e-10
0.196, -7.075e-10
0.195, -7.116e-10
0.194, -7.179e-10
0.193, -7.230e-10
0.192, -7.295e-10
0.191, -7.358e-10
0.190, -7.420e-10
0.189, -7.484e-10
0.188, -7.550e-10
0.187, -7.607e-10
0.186, -7.672e-10
0.185, -7.729e-10
0.184, -7.792e-10
0.183, -7.866e-10
0.182, -7.914e-10
0.181, -7.974e-10
0.180, -8.027e-10
0.179, -8.082e-10
0.178, -8.123e-10
0.177, -8.178e-10
0.176, -8.224e-10
0.175, -8.275e-10
0.174, -8.336e-10
0.173, -8.392e-10
0.172, -8.447e-10
0.171, -8.511e-10
0.170, -8.561e-10
0.169, -8.600e-10
0.168, -8.659e-10
0.167, -8.717e-10
0.166, -8.754e-10
0.165, -8.820e-10
0.164, -8.889e-10
0.163, -8.946e-10
0.162, -9.006e-10
0.161, -9.067e-10
0.160, -9.128e-10
0.159, -9.191e-10
0.158, -9.245e-10
0.157, -9.304e-10
0.156, -9.366e-10
0.155, -9.421e-10
0.154, -9.474e-10
0.153, -9.520e-10
0.152, -9.580e-10
0.151, -9.646e-10
0.150, -9.707e-10
0.149, -9.763e-10
0.148, -9.825e-10
0.147, -9.886e-10
0.146, -9.959e-10
0.145, -1.002e-9
0.144, -1.009e-9
0.143, -1.015e-9
0.142, -1.022e-9
0.141, -1.028e-9
0.140, -1.035e-9
0.139, -1.041e-9
0.138, -1.048e-9
0.137, -1.053e-9
0.136, -1.059e-9
0.135, -1.065e-9
0.134, -1.071e-9
0.133, -1.077e-9
0.132, -1.082e-9
0.131, -1.088e-9
0.130, -1.095e-9
0.129, -1.101e-9
0.128, -1.107e-9
0.127, -1.113e-9
0.126, -1.119e-9
0.125, -1.125e-9
0.124, -1.131e-9
0.123, -1.137e-9
0.122, -1.144e-9
0.121, -1.150e-9
0.120, -1.156e-9
0.119, -1.161e-9
0.118, -1.169e-9
0.117, -1.176e-9
0.116, -1.182e-9
0.115, -1.188e-9
0.114, -1.195e-9
0.113, -1.201e-9
0.112, -1.209e-9
0.111, -1.216e-9
0.110, -1.222e-9
0.109, -1.230e-9
0.108, -1.237e-9
0.107, -1.245e-9
0.106, -1.253e-9
0.105, -1.261e-9
0.104, -1.268e-9
0.103, -1.275e-9
0.102, -1.286e-9
0.101, -1.290e-9
0.100, -1.297e-9
0.099, -1.303e-9
0.098, -1.310e-9
0.097, -1.316e-9
0.096, -1.321e-9
0.095, -1.329e-9
0.094, -1.336e-9
0.093, -1.343e-9
0.092, -1.351e-9
0.091, -1.357e-9
0.090, -1.363e-9
0.089, -1.370e-9
0.088, -1.378e-9
0.087, -1.384e-9
0.086, -1.390e-9
0.085, -1.398e-9
0.084, -1.406e-9
0.083, -1.413e-9
0.082, -1.421e-9
0.081, -1.429e-9
0.080, -1.436e-9
0.079, -1.443e-9
0.078, -1.451e-9
0.077, -1.461e-9
0.076, -1.467e-9
0.075, -1.477e-9
0.074, -1.485e-9
0.073, -1.493e-9
0.072, -1.502e-9
0.071, -1.512e-9
0.070, -1.520e-9
0.069, -1.529e-9
0.068, -1.536e-9
0.067, -1.543e-9
0.066, -1.551e-9
0.065, -1.560e-9
0.064, -1.567e-9
0.063, -1.573e-9
0.062, -1.581e-9
0.061, -1.589e-9
0.060, -1.598e-9
0.059, -1.606e-9
0.058, -1.614e-9
0.057, -1.622e-9
0.056, -1.630e-9
0.055, -1.638e-9
0.054, -1.645e-9
0.053, -1.653e-9
0.052, -1.660e-9
0.051, -1.667e-9
0.050, -1.675e-9
0.049, -1.683e-9
0.048, -1.691e-9
0.047, -1.699e-9
0.046, -1.710e-9
0.045, -1.717e-9
0.044, -1.727e-9
0.043, -1.737e-9
0.042, -1.746e-9
0.041, -1.754e-9
0.040, -1.764e-9
0.039, -1.772e-9
0.038, -1.780e-9
0.037, -1.787e-9
0.036, -1.794e-9
0.035, -1.801e-9
0.034, -1.809e-9
0.033, -1.817e-9
0.032, -1.827e-9
0.031, -1.837e-9
0.030, -1.845e-9
0.029, -1.854e-9
0.028, -1.863e-9
0.027, -1.873e-9
0.026, -1.882e-9
0.025, -1.891e-9
0.024, -1.899e-9
0.023, -1.907e-9
0.022, -1.915e-9
0.021, -1.924e-9
0.020, -1.934e-9
0.019, -1.942e-9
0.018, -1.950e-9
0.017, -1.958e-9
0.016, -1.966e-9
0.015, -1.974e-9
0.014, -1.984e-9
0.013, -1.992e-9
0.012, -2.000e-9
0.011, -2.011e-9
0.010, -2.019e-9
0.009, -2.027e-9
0.008, -2.036e-9
0.007, -2.045e-9
0.006, -2.052e-9
0.005, -2.059e-9
0.004, -2.068e-9
0.003, -2.076e-9
0.002, -2.086e-9
0.001, -2.095e-9
-0.000, -2.099e-9
-0.001, -2.106e-9
-0.002, -2.117e-9
-0.003, -2.127e-9
-0.004, -2.134e-9
-0.005, -2.143e-9
-0.006, -2.151e-9
-0.007, -2.159e-9
-0.008, -2.166e-9
-0.009, -2.174e-9
-0.010, -2.183e-9
-0.011, -2.191e-9
-0.012, -2.200e-9
-0.013, -2.209e-9
-0.014, -2.218e-9
-0.015, -2.227e-9
-0.016, -2.235e-9
-0.017, -2.245e-9
-0.018, -2.252e-9
-0.019, -2.261e-9
-0.020, -2.269e-9
-0.021, -2.277e-9
-0.022, -2.285e-9
-0.023, -2.292e-9
-0.024, -2.301e-9
-0.025, -2.307e-9
-0.026, -2.315e-9
-0.027, -2.322e-9
-0.028, -2.330e-9
-0.029, -2.337e-9
-0.030, -2.346e-9
-0.031, -2.354e-9
-0.032, -2.362e-9
-0.033, -2.372e-9
-0.034, -2.380e-9
-0.035, -2.387e-9
-0.036, -2.394e-9
-0.037, -2.402e-9
-0.038, -2.410e-9
-0.039, -2.417e-9
-0.040, -2.424e-9
-0.041, -2.431e-9
-0.042, -2.440e-9
-0.043, -2.447e-9
-0.044, -2.457e-9
-0.045, -2.466e-9
-0.046, -2.475e-9
-0.047, -2.486e-9
-0.048, -2.495e-9
-0.049, -2.501e-9
-0.050, -2.510e-9
-0.051, -2.515e-9
-0.052, -2.521e-9
-0.053, -2.527e-9
-0.054, -2.535e-9
-0.055, -2.542e-9
-0.056, -2.549e-9
-0.057, -2.557e-9
-0.058, -2.567e-9
-0.059, -2.572e-9
-0.060, -2.578e-9
-0.061, -2.584e-9
-0.062, -2.590e-9
-0.063, -2.600e-9
-0.064, -2.608e-9
-0.065, -2.617e-9
-0.066, -2.627e-9
-0.067, -2.631e-9
-0.068, -2.636e-9
-0.069, -2.643e-9
-0.070, -2.648e-9
-0.071, -2.651e-9
-0.072, -2.655e-9
-0.073, -2.661e-9
-0.074, -2.666e-9
-0.075, -2.674e-9
-0.076, -2.683e-9
-0.077, -2.691e-9
-0.078, -2.699e-9
-0.079, -2.704e-9
-0.080, -2.713e-9
-0.081, -2.717e-9
-0.082, -2.718e-9
-0.083, -2.724e-9
-0.084, -2.730e-9
-0.085, -2.738e-9
-0.086, -2.752e-9
-0.087, -2.778e-9
-0.088, -2.789e-9
-0.089, -2.771e-9
-0.090, -2.766e-9
-0.091, -2.770e-9
-0.092, -2.774e-9
-0.093, -2.779e-9
-0.094, -2.786e-9
-0.095, -2.791e-9
-0.096, -2.798e-9
-0.097, -2.803e-9
-0.098, -2.808e-9
-0.099, -2.814e-9
-0.100, -2.820e-9
-0.101, -2.827e-9
-0.102, -2.835e-9
-0.103, -2.844e-9
-0.104, -2.847e-9
-0.105, -2.853e-9
-0.106, -2.859e-9
-0.107, -2.863e-9
-0.108, -2.871e-9
-0.109, -2.877e-9
-0.110, -2.883e-9
-0.111, -2.887e-9
-0.112, -2.894e-9
-0.113, -2.902e-9
-0.114, -2.904e-9
-0.115, -2.909e-9
-0.116, -2.913e-9
-0.117, -2.919e-9
-0.118, -2.923e-9
-0.119, -2.927e-9
-0.120, -2.931e-9
-0.121, -2.938e-9
-0.122, -2.943e-9
-0.123, -2.948e-9
-0.124, -2.955e-9
-0.125, -2.958e-9
-0.126, -2.963e-9
-0.127, -2.969e-9
-0.128, -2.973e-9
-0.129, -2.979e-9
-0.130, -2.983e-9
-0.131, -2.988e-9
-0.132, -2.993e-9
-0.133, -2.999e-9
-0.134, -3.005e-9
-0.135, -3.009e-9
-0.136, -3.013e-9
-0.137, -3.017e-9
-0.138, -3.021e-9
-0.139, -3.027e-9
-0.140, -3.032e-9
-0.141, -3.035e-9
-0.142, -3.039e-9
-0.143, -3.044e-9
-0.144, -3.048e-9
-0.145, -3.053e-9
-0.146, -3.058e-9
-0.147, -3.063e-9
-0.148, -3.067e-9
-0.149, -3.072e-9
-0.150, -3.077e-9
-0.151, -3.079e-9
-0.152, -3.084e-9
-0.153, -3.090e-9
-0.154, -3.092e-9
-0.155, -3.096e-9
-0.156, -3.100e-9
-0.157, -3.105e-9
-0.158, -3.107e-9
-0.159, -3.112e-9
-0.160, -3.116e-9
-0.161, -3.121e-9
-0.162, -3.124e-9
-0.163, -3.130e-9
-0.164, -3.134e-9
-0.165, -3.136e-9
-0.166, -3.140e-9
-0.167, -3.145e-9
-0.168, -3.150e-9
-0.169, -3.155e-9
-0.170, -3.159e-9
-0.171, -3.162e-9
-0.172, -3.167e-9
-0.173, -3.170e-9
-0.174, -3.175e-9
-0.175, -3.180e-9
-0.176, -3.183e-9
-0.177, -3.186e-9
-0.178, -3.189e-9
-0.179, -3.195e-9
-0.180, -3.198e-9
-0.181, -3.204e-9
-0.182, -3.209e-9
-0.183, -3.213e-9
-0.184, -3.217e-9
-0.185, -3.220e-9
-0.186, -3.223e-9
-0.187, -3.228e-9
-0.188, -3.236e-9
-0.189, -3.239e-9
-0.190, -3.241e-9
-0.191, -3.243e-9
-0.192, -3.244e-9
-0.193, -3.250e-9
-0.194, -3.254e-9
-0.195, -3.256e-9
-0.196, -3.259e-9
-0.197, -3.262e-9
-0.198, -3.266e-9
-0.199, -3.270e-9
-0.200, -3.274e-9
-0.201, -3.278e-9
-0.202, -3.281e-9
-0.203, -3.284e-9
-0.204, -3.288e-9
-0.205, -3.287e-9
-0.206, -3.291e-9
-0.207, -3.296e-9
-0.208, -3.300e-9
-0.209, -3.303e-9
-0.210, -3.308e-9
-0.211, -3.312e-9
-0.212, -3.315e-9
-0.213, -3.319e-9
-0.214, -3.323e-9
-0.215, -3.327e-9
-0.216, -3.331e-9
-0.217, -3.335e-9
-0.218, -3.338e-9
-0.219, -3.344e-9
-0.220, -3.346e-9
-0.221, -3.349e-9
-0.222, -3.355e-9
-0.223, -3.358e-9
-0.224, -3.361e-9
-0.225, -3.363e-9
-0.226, -3.367e-9
-0.227, -3.372e-9
-0.228, -3.374e-9
-0.229, -3.378e-9
-0.230, -3.381e-9
-0.231, -3.383e-9
-0.232, -3.386e-9
-0.233, -3.391e-9
-0.234, -3.394e-9
-0.235, -3.400e-9
-0.236, -3.404e-9
-0.237, -3.407e-9
-0.238, -3.409e-9
-0.239, -3.412e-9
-0.240, -3.416e-9
-0.241, -3.419e-9
-0.242, -3.423e-9
-0.243, -3.427e-9
-0.244, -3.429e-9
-0.245, -3.432e-9
-0.246, -3.436e-9
-0.247, -3.440e-9
-0.248, -3.444e-9
-0.249, -3.448e-9
-0.250, -3.452e-9
-0.251, -3.455e-9
-0.252, -3.459e-9
-0.253, -3.460e-9
-0.254, -3.464e-9
-0.255, -3.467e-9
-0.256, -3.469e-9
-0.257, -3.473e-9
-0.258, -3.476e-9
-0.259, -3.480e-9
-0.260, -3.483e-9
-0.261, -3.485e-9
-0.262, -3.489e-9
-0.263, -3.492e-9
-0.264, -3.493e-9
-0.265, -3.495e-9
-0.266, -3.497e-9
-0.267, -3.500e-9
-0.268, -3.503e-9
-0.269, -3.506e-9
-0.270, -3.510e-9
-0.271, -3.513e-9
-0.272, -3.516e-9
-0.273, -3.518e-9
-0.274, -3.522e-9
-0.275, -3.524e-9
-0.276, -3.526e-9
-0.277, -3.529e-9
-0.278, -3.533e-9
-0.279, -3.536e-9
-0.280, -3.539e-9
-0.281, -3.541e-9
-0.282, -3.542e-9
-0.283, -3.545e-9
-0.284, -3.548e-9
-0.285, -3.551e-9
-0.286, -3.555e-9
-0.287, -3.559e-9
-0.288, -3.561e-9
-0.289, -3.565e-9
-0.290, -3.569e-9
-0.291, -3.572e-9
-0.292, -3.575e-9
-0.293, -3.578e-9
-0.294, -3.580e-9
-0.295, -3.583e-9
-0.296, -3.587e-9
-0.297, -3.590e-9
-0.298, -3.592e-9
-0.299, -3.595e-9
-0.300, -3.599e-9
-0.301, -3.603e-9
-0.302, -3.605e-9
-0.303, -3.608e-9
-0.304, -3.611e-9
-0.305, -3.614e-9
-0.306, -3.616e-9
-0.307, -3.621e-9
-0.308, -3.626e-9
-0.309, -3.627e-9
-0.310, -3.630e-9
-0.311, -3.633e-9
-0.312, -3.636e-9
-0.313, -3.639e-9
-0.314, -3.644e-9
-0.315, -3.647e-9
-0.316, -3.649e-9
-0.317, -3.651e-9
-0.318, -3.653e-9
-0.319, -3.656e-9
-0.320, -3.658e-9
-0.321, -3.661e-9
-0.322, -3.664e-9
-0.323, -3.668e-9
-0.324, -3.671e-9
-0.325, -3.676e-9
-0.326, -3.678e-9
-0.327, -3.680e-9
-0.328, -3.682e-9
-0.329, -3.685e-9
-0.330, -3.687e-9
-0.331, -3.689e-9
-0.332, -3.694e-9
-0.333, -3.696e-9
-0.334, -3.699e-9
-0.335, -3.701e-9
-0.336, -3.703e-9
-0.337, -3.705e-9
-0.338, -3.707e-9
-0.339, -3.710e-9
-0.340, -3.712e-9
-0.341, -3.715e-9
-0.342, -3.717e-9
-0.343, -3.719e-9
-0.344, -3.723e-9
-0.345, -3.726e-9
-0.346, -3.727e-9
-0.347, -3.729e-9
-0.348, -3.730e-9
-0.349, -3.732e-9
-0.350, -3.735e-9
-0.351, -3.736e-9
-0.352, -3.739e-9
-0.353, -3.741e-9
-0.354, -3.744e-9
-0.355, -3.746e-9
-0.356, -3.749e-9
-0.357, -3.750e-9
-0.358, -3.751e-9
-0.359, -3.752e-9
-0.360, -3.754e-9
-0.361, -3.758e-9
-0.362, -3.759e-9
-0.363, -3.761e-9
-0.364, -3.762e-9
-0.365, -3.765e-9
-0.366, -3.768e-9
-0.367, -3.770e-9
-0.368, -3.771e-9
-0.369, -3.775e-9
-0.370, -3.776e-9
-0.371, -3.778e-9
-0.372, -3.779e-9
-0.373, -3.781e-9
-0.374, -3.784e-9
-0.375, -3.786e-9
-0.376, -3.789e-9
-0.377, -3.792e-9
-0.378, -3.794e-9
-0.379, -3.796e-9
-0.380, -3.797e-9
-0.381, -3.799e-9
-0.382, -3.802e-9
-0.383, -3.804e-9
-0.384, -3.807e-9
-0.385, -3.811e-9
-0.386, -3.812e-9
-0.387, -3.813e-9
-0.388, -3.815e-9
-0.389, -3.819e-9
-0.390, -3.821e-9
-0.391, -3.823e-9
-0.392, -3.824e-9
-0.393, -3.829e-9
-0.394, -3.829e-9
-0.395, -3.831e-9
-0.396, -3.834e-9
-0.397, -3.835e-9
-0.398, -3.837e-9
-0.399, -3.840e-9
-0.400, -3.844e-9
-0.401, -3.846e-9
-0.402, -3.849e-9
-0.403, -3.853e-9
-0.404, -3.855e-9
-0.405, -3.856e-9
-0.406, -3.858e-9
-0.407, -3.860e-9
-0.408, -3.861e-9
-0.409, -3.864e-9
-0.410, -3.868e-9
-0.411, -3.870e-9
-0.412, -3.871e-9
-0.413, -3.874e-9
-0.414, -3.877e-9
-0.415, -3.880e-9
-0.416, -3.882e-9
-0.417, -3.883e-9
-0.418, -3.885e-9
-0.419, -3.887e-9
-0.420, -3.888e-9
-0.421, -3.891e-9
-0.422, -3.894e-9
-0.423, -3.896e-9
-0.424, -3.898e-9
-0.425, -3.900e-9
-0.426, -3.902e-9
-0.427, -3.906e-9
-0.428, -3.908e-9
-0.429, -3.911e-9
-0.430, -3.913e-9
-0.431, -3.916e-9
-0.432, -3.919e-9
-0.433, -3.920e-9
-0.434, -3.922e-9
-0.435, -3.925e-9
-0.436, -3.928e-9
-0.437, -3.930e-9
-0.438, -3.933e-9
-0.439, -3.934e-9
-0.440, -3.937e-9
-0.441, -3.940e-9
-0.442, -3.942e-9
-0.443, -3.946e-9
-0.444, -3.949e-9
-0.445, -3.950e-9
-0.446, -3.954e-9
-0.447, -3.955e-9
-0.448, -3.959e-9
-0.449, -3.964e-9
-0.450, -3.966e-9
-0.451, -3.969e-9
-0.452, -3.970e-9
-0.453, -3.972e-9
-0.454, -3.975e-9
-0.455, -3.978e-9
-0.456, -3.981e-9
-0.457, -3.984e-9
-0.458, -3.985e-9
-0.459, -3.989e-9
-0.460, -3.991e-9
-0.461, -3.992e-9
-0.462, -3.994e-9
-0.463, -3.999e-9
-0.464, -4.001e-9
-0.465, -4.005e-9
-0.466, -4.007e-9
-0.467, -4.010e-9
-0.468, -4.012e-9
-0.469, -4.014e-9
-0.470, -4.017e-9
-0.471, -4.019e-9
-0.472, -4.023e-9
-0.473, -4.025e-9
-0.474, -4.026e-9
-0.475, -4.030e-9
-0.476, -4.033e-9
-0.477, -4.036e-9
-0.478, -4.039e-9
-0.479, -4.042e-9
-0.480, -4.045e-9
-0.481, -4.048e-9
-0.482, -4.051e-9
-0.483, -4.053e-9
-0.484, -4.056e-9
-0.485, -4.061e-9
-0.486, -4.065e-9
-0.487, -4.066e-9
-0.488, -4.069e-9
-0.489, -4.072e-9
-0.490, -4.075e-9
-0.491, -4.079e-9
-0.492, -4.084e-9
-0.493, -4.088e-9
-0.494, -4.091e-9
-0.495, -4.095e-9
-0.496, -4.096e-9
-0.497, -4.101e-9
-0.498, -4.105e-9
-0.499, -4.108e-9
