Nov. 20, 2024   15:51:10
Cyclic Voltammetry
File: +12 2319-1 fto cv_cells_dark_surface_4.bin
Data Source:  Experiment
Instrument Model:  CHI920C
Ref. Electrode: 
Header: 
Note: 

Init E (V) = -0.5
High E (V) = 0.5
Low E (V) = -0.5
Init P/N = P
Scan Rate (V/s) = 0.05
Segment = 2
Sample Interval (V) = 0.001
Quiet Time (sec) = 10
Sensitivity (A/V) = 1e-7

Results:

Channel 1:
Segment 1:
Ep = 0.129V
ip = 1.417e-9A
Ah = 4.636e-10C

Segment 2:
Ep = -0.061V
ip = -4.397e-10A
Ah = -7.637e-10C

Potential/V, Current/A

-0.500, -1.580e-9
-0.499, -1.513e-9
-0.498, -1.454e-9
-0.497, -1.417e-9
-0.496, -1.387e-9
-0.495, -1.361e-9
-0.494, -1.338e-9
-0.493, -1.317e-9
-0.492, -1.299e-9
-0.491, -1.282e-9
-0.490, -1.264e-9
-0.489, -1.246e-9
-0.488, -1.228e-9
-0.487, -1.211e-9
-0.486, -1.197e-9
-0.485, -1.183e-9
-0.484, -1.169e-9
-0.483, -1.156e-9
-0.482, -1.145e-9
-0.481, -1.133e-9
-0.480, -1.120e-9
-0.479, -1.109e-9
-0.478, -1.098e-9
-0.477, -1.087e-9
-0.476, -1.077e-9
-0.475, -1.068e-9
-0.474, -1.059e-9
-0.473, -1.049e-9
-0.472, -1.039e-9
-0.471, -1.029e-9
-0.470, -1.019e-9
-0.469, -1.008e-9
-0.468, -9.981e-10
-0.467, -9.881e-10
-0.466, -9.779e-10
-0.465, -9.675e-10
-0.464, -9.587e-10
-0.463, -9.493e-10
-0.462, -9.407e-10
-0.461, -9.330e-10
-0.460, -9.242e-10
-0.459, -9.171e-10
-0.458, -9.077e-10
-0.457, -8.995e-10
-0.456, -8.922e-10
-0.455, -8.841e-10
-0.454, -8.752e-10
-0.453, -8.678e-10
-0.452, -8.589e-10
-0.451, -8.524e-10
-0.450, -8.463e-10
-0.449, -8.386e-10
-0.448, -8.332e-10
-0.447, -8.260e-10
-0.446, -8.191e-10
-0.445, -8.118e-10
-0.444, -8.055e-10
-0.443, -7.973e-10
-0.442, -7.904e-10
-0.441, -7.829e-10
-0.440, -7.750e-10
-0.439, -7.676e-10
-0.438, -7.603e-10
-0.437, -7.518e-10
-0.436, -7.435e-10
-0.435, -7.373e-10
-0.434, -7.301e-10
-0.433, -7.226e-10
-0.432, -7.150e-10
-0.431, -7.089e-10
-0.430, -7.032e-10
-0.429, -6.949e-10
-0.428, -6.876e-10
-0.427, -6.824e-10
-0.426, -6.756e-10
-0.425, -6.689e-10
-0.424, -6.610e-10
-0.423, -6.551e-10
-0.422, -6.485e-10
-0.421, -6.410e-10
-0.420, -6.348e-10
-0.419, -6.279e-10
-0.418, -6.214e-10
-0.417, -6.157e-10
-0.416, -6.084e-10
-0.415, -6.023e-10
-0.414, -5.966e-10
-0.413, -5.903e-10
-0.412, -5.856e-10
-0.411, -5.796e-10
-0.410, -5.731e-10
-0.409, -5.655e-10
-0.408, -5.589e-10
-0.407, -5.521e-10
-0.406, -5.451e-10
-0.405, -5.384e-10
-0.404, -5.298e-10
-0.403, -5.243e-10
-0.402, -5.176e-10
-0.401, -5.092e-10
-0.400, -5.024e-10
-0.399, -4.959e-10
-0.398, -4.888e-10
-0.397, -4.821e-10
-0.396, -4.765e-10
-0.395, -4.690e-10
-0.394, -4.626e-10
-0.393, -4.567e-10
-0.392, -4.506e-10
-0.391, -4.433e-10
-0.390, -4.377e-10
-0.389, -4.323e-10
-0.388, -4.262e-10
-0.387, -4.226e-10
-0.386, -4.151e-10
-0.385, -4.080e-10
-0.384, -4.030e-10
-0.383, -3.981e-10
-0.382, -3.915e-10
-0.381, -3.862e-10
-0.380, -3.797e-10
-0.379, -3.727e-10
-0.378, -3.666e-10
-0.377, -3.620e-10
-0.376, -3.567e-10
-0.375, -3.498e-10
-0.374, -3.453e-10
-0.373, -3.401e-10
-0.372, -3.349e-10
-0.371, -3.304e-10
-0.370, -3.239e-10
-0.369, -3.173e-10
-0.368, -3.099e-10
-0.367, -3.060e-10
-0.366, -3.008e-10
-0.365, -2.932e-10
-0.364, -2.868e-10
-0.363, -2.803e-10
-0.362, -2.739e-10
-0.361, -2.671e-10
-0.360, -2.603e-10
-0.359, -2.536e-10
-0.358, -2.490e-10
-0.357, -2.420e-10
-0.356, -2.359e-10
-0.355, -2.305e-10
-0.354, -2.241e-10
-0.353, -2.168e-10
-0.352, -2.107e-10
-0.351, -2.047e-10
-0.350, -1.993e-10
-0.349, -1.937e-10
-0.348, -1.895e-10
-0.347, -1.825e-10
-0.346, -1.768e-10
-0.345, -1.716e-10
-0.344, -1.653e-10
-0.343, -1.583e-10
-0.342, -1.530e-10
-0.341, -1.485e-10
-0.340, -1.428e-10
-0.339, -1.353e-10
-0.338, -1.311e-10
-0.337, -1.249e-10
-0.336, -1.208e-10
-0.335, -1.149e-10
-0.334, -1.103e-10
-0.333, -1.053e-10
-0.332, -9.842e-11
-0.331, -9.237e-11
-0.330, -8.711e-11
-0.329, -8.282e-11
-0.328, -7.609e-11
-0.327, -7.054e-11
-0.326, -6.527e-11
-0.325, -5.942e-11
-0.324, -5.211e-11
-0.323, -4.578e-11
-0.322, -3.788e-11
-0.321, -3.262e-11
-0.320, -2.657e-11
-0.319, -2.033e-11
-0.318, -1.293e-11
-0.317, -5.225e-12
-0.316, -4.484e-13
-0.315, 6.083e-12
-0.314, 1.232e-11
-0.313, 1.827e-11
-0.312, 2.577e-11
-0.311, 3.114e-11
-0.310, 3.474e-11
-0.309, 4.127e-11
-0.308, 4.810e-11
-0.307, 5.746e-11
-0.306, 6.379e-11
-0.305, 6.672e-11
-0.304, 7.266e-11
-0.303, 7.656e-11
-0.302, 8.241e-11
-0.301, 8.816e-11
-0.300, 9.411e-11
-0.299, 1.001e-10
-0.298, 1.051e-10
-0.297, 1.110e-10
-0.296, 1.163e-10
-0.295, 1.223e-10
-0.294, 1.267e-10
-0.293, 1.330e-10
-0.292, 1.392e-10
-0.291, 1.437e-10
-0.290, 1.495e-10
-0.289, 1.546e-10
-0.288, 1.591e-10
-0.287, 1.645e-10
-0.286, 1.697e-10
-0.285, 1.753e-10
-0.284, 1.799e-10
-0.283, 1.865e-10
-0.282, 1.926e-10
-0.281, 1.967e-10
-0.280, 2.042e-10
-0.279, 2.100e-10
-0.278, 2.161e-10
-0.277, 2.229e-10
-0.276, 2.313e-10
-0.275, 2.351e-10
-0.274, 2.420e-10
-0.273, 2.482e-10
-0.272, 2.545e-10
-0.271, 2.608e-10
-0.270, 2.659e-10
-0.269, 2.709e-10
-0.268, 2.769e-10
-0.267, 2.824e-10
-0.266, 2.884e-10
-0.265, 2.941e-10
-0.264, 3.008e-10
-0.263, 3.063e-10
-0.262, 3.119e-10
-0.261, 3.184e-10
-0.260, 3.254e-10
-0.259, 3.311e-10
-0.258, 3.365e-10
-0.257, 3.429e-10
-0.256, 3.476e-10
-0.255, 3.522e-10
-0.254, 3.593e-10
-0.253, 3.648e-10
-0.252, 3.685e-10
-0.251, 3.750e-10
-0.250, 3.809e-10
-0.249, 3.853e-10
-0.248, 3.911e-10
-0.247, 3.974e-10
-0.246, 4.022e-10
-0.245, 4.082e-10
-0.244, 4.132e-10
-0.243, 4.187e-10
-0.242, 4.253e-10
-0.241, 4.334e-10
-0.240, 4.399e-10
-0.239, 4.452e-10
-0.238, 4.521e-10
-0.237, 4.584e-10
-0.236, 4.651e-10
-0.235, 4.732e-10
-0.234, 4.795e-10
-0.233, 4.872e-10
-0.232, 4.923e-10
-0.231, 5.012e-10
-0.230, 5.066e-10
-0.229, 5.131e-10
-0.228, 5.192e-10
-0.227, 5.254e-10
-0.226, 5.326e-10
-0.225, 5.378e-10
-0.224, 5.440e-10
-0.223, 5.499e-10
-0.222, 5.557e-10
-0.221, 5.611e-10
-0.220, 5.677e-10
-0.219, 5.732e-10
-0.218, 5.798e-10
-0.217, 5.854e-10
-0.216, 5.918e-10
-0.215, 5.972e-10
-0.214, 6.028e-10
-0.213, 6.090e-10
-0.212, 6.142e-10
-0.211, 6.208e-10
-0.210, 6.275e-10
-0.209, 6.320e-10
-0.208, 6.389e-10
-0.207, 6.449e-10
-0.206, 6.499e-10
-0.205, 6.538e-10
-0.204, 6.577e-10
-0.203, 6.640e-10
-0.202, 6.714e-10
-0.201, 6.776e-10
-0.200, 6.848e-10
-0.199, 6.915e-10
-0.198, 6.967e-10
-0.197, 7.039e-10
-0.196, 7.093e-10
-0.195, 7.152e-10
-0.194, 7.225e-10
-0.193, 7.281e-10
-0.192, 7.346e-10
-0.191, 7.408e-10
-0.190, 7.467e-10
-0.189, 7.521e-10
-0.188, 7.584e-10
-0.187, 7.646e-10
-0.186, 7.706e-10
-0.185, 7.764e-10
-0.184, 7.835e-10
-0.183, 7.900e-10
-0.182, 7.949e-10
-0.181, 7.993e-10
-0.180, 8.061e-10
-0.179, 8.119e-10
-0.178, 8.182e-10
-0.177, 8.239e-10
-0.176, 8.297e-10
-0.175, 8.364e-10
-0.174, 8.433e-10
-0.173, 8.475e-10
-0.172, 8.542e-10
-0.171, 8.594e-10
-0.170, 8.650e-10
-0.169, 8.710e-10
-0.168, 8.778e-10
-0.167, 8.825e-10
-0.166, 8.880e-10
-0.165, 8.951e-10
-0.164, 9.013e-10
-0.163, 9.063e-10
-0.162, 9.136e-10
-0.161, 9.186e-10
-0.160, 9.269e-10
-0.159, 9.325e-10
-0.158, 9.374e-10
-0.157, 9.448e-10
-0.156, 9.500e-10
-0.155, 9.568e-10
-0.154, 9.641e-10
-0.153, 9.681e-10
-0.152, 9.734e-10
-0.151, 9.790e-10
-0.150, 9.844e-10
-0.149, 9.900e-10
-0.148, 9.959e-10
-0.147, 1.002e-9
-0.146, 1.008e-9
-0.145, 1.014e-9
-0.144, 1.020e-9
-0.143, 1.026e-9
-0.142, 1.032e-9
-0.141, 1.036e-9
-0.140, 1.042e-9
-0.139, 1.048e-9
-0.138, 1.055e-9
-0.137, 1.060e-9
-0.136, 1.065e-9
-0.135, 1.070e-9
-0.134, 1.080e-9
-0.133, 1.085e-9
-0.132, 1.091e-9
-0.131, 1.096e-9
-0.130, 1.101e-9
-0.129, 1.107e-9
-0.128, 1.112e-9
-0.127, 1.117e-9
-0.126, 1.122e-9
-0.125, 1.128e-9
-0.124, 1.132e-9
-0.123, 1.137e-9
-0.122, 1.143e-9
-0.121, 1.149e-9
-0.120, 1.155e-9
-0.119, 1.159e-9
-0.118, 1.165e-9
-0.117, 1.171e-9
-0.116, 1.178e-9
-0.115, 1.184e-9
-0.114, 1.190e-9
-0.113, 1.197e-9
-0.112, 1.202e-9
-0.111, 1.209e-9
-0.110, 1.216e-9
-0.109, 1.220e-9
-0.108, 1.227e-9
-0.107, 1.231e-9
-0.106, 1.238e-9
-0.105, 1.244e-9
-0.104, 1.249e-9
-0.103, 1.255e-9
-0.102, 1.266e-9
-0.101, 1.270e-9
-0.100, 1.275e-9
-0.099, 1.280e-9
-0.098, 1.285e-9
-0.097, 1.290e-9
-0.096, 1.295e-9
-0.095, 1.302e-9
-0.094, 1.308e-9
-0.093, 1.314e-9
-0.092, 1.319e-9
-0.091, 1.323e-9
-0.090, 1.329e-9
-0.089, 1.336e-9
-0.088, 1.342e-9
-0.087, 1.347e-9
-0.086, 1.352e-9
-0.085, 1.358e-9
-0.084, 1.363e-9
-0.083, 1.368e-9
-0.082, 1.376e-9
-0.081, 1.381e-9
-0.080, 1.385e-9
-0.079, 1.391e-9
-0.078, 1.397e-9
-0.077, 1.404e-9
-0.076, 1.409e-9
-0.075, 1.416e-9
-0.074, 1.421e-9
-0.073, 1.426e-9
-0.072, 1.432e-9
-0.071, 1.439e-9
-0.070, 1.445e-9
-0.069, 1.450e-9
-0.068, 1.455e-9
-0.067, 1.461e-9
-0.066, 1.467e-9
-0.065, 1.473e-9
-0.064, 1.478e-9
-0.063, 1.483e-9
-0.062, 1.488e-9
-0.061, 1.493e-9
-0.060, 1.497e-9
-0.059, 1.503e-9
-0.058, 1.511e-9
-0.057, 1.516e-9
-0.056, 1.522e-9
-0.055, 1.528e-9
-0.054, 1.533e-9
-0.053, 1.538e-9
-0.052, 1.544e-9
-0.051, 1.549e-9
-0.050, 1.554e-9
-0.049, 1.561e-9
-0.048, 1.567e-9
-0.047, 1.572e-9
-0.046, 1.577e-9
-0.045, 1.583e-9
-0.044, 1.588e-9
-0.043, 1.594e-9
-0.042, 1.601e-9
-0.041, 1.604e-9
-0.040, 1.609e-9
-0.039, 1.615e-9
-0.038, 1.620e-9
-0.037, 1.625e-9
-0.036, 1.630e-9
-0.035, 1.635e-9
-0.034, 1.641e-9
-0.033, 1.647e-9
-0.032, 1.654e-9
-0.031, 1.659e-9
-0.030, 1.664e-9
-0.029, 1.671e-9
-0.028, 1.679e-9
-0.027, 1.684e-9
-0.026, 1.690e-9
-0.025, 1.695e-9
-0.024, 1.701e-9
-0.023, 1.708e-9
-0.022, 1.712e-9
-0.021, 1.718e-9
-0.020, 1.725e-9
-0.019, 1.730e-9
-0.018, 1.736e-9
-0.017, 1.742e-9
-0.016, 1.747e-9
-0.015, 1.753e-9
-0.014, 1.760e-9
-0.013, 1.766e-9
-0.012, 1.770e-9
-0.011, 1.777e-9
-0.010, 1.782e-9
-0.009, 1.788e-9
-0.008, 1.794e-9
-0.007, 1.800e-9
-0.006, 1.806e-9
-0.005, 1.813e-9
-0.004, 1.819e-9
-0.003, 1.824e-9
-0.002, 1.830e-9
-0.001, 1.836e-9
0.000, 1.839e-9
0.001, 1.842e-9
0.002, 1.850e-9
0.003, 1.856e-9
0.004, 1.862e-9
0.005, 1.869e-9
0.006, 1.875e-9
0.007, 1.882e-9
0.008, 1.889e-9
0.009, 1.897e-9
0.010, 1.901e-9
0.011, 1.908e-9
0.012, 1.914e-9
0.013, 1.920e-9
0.014, 1.926e-9
0.015, 1.932e-9
0.016, 1.939e-9
0.017, 1.945e-9
0.018, 1.951e-9
0.019, 1.957e-9
0.020, 1.964e-9
0.021, 1.971e-9
0.022, 1.977e-9
0.023, 1.982e-9
0.024, 1.987e-9
0.025, 1.992e-9
0.026, 1.998e-9
0.027, 2.005e-9
0.028, 2.010e-9
0.029, 2.017e-9
0.030, 2.023e-9
0.031, 2.029e-9
0.032, 2.037e-9
0.033, 2.043e-9
0.034, 2.049e-9
0.035, 2.054e-9
0.036, 2.061e-9
0.037, 2.066e-9
0.038, 2.072e-9
0.039, 2.077e-9
0.040, 2.083e-9
0.041, 2.089e-9
0.042, 2.094e-9
0.043, 2.100e-9
0.044, 2.106e-9
0.045, 2.112e-9
0.046, 2.118e-9
0.047, 2.124e-9
0.048, 2.130e-9
0.049, 2.137e-9
0.050, 2.144e-9
0.051, 2.151e-9
0.052, 2.157e-9
0.053, 2.165e-9
0.054, 2.170e-9
0.055, 2.176e-9
0.056, 2.185e-9
0.057, 2.192e-9
0.058, 2.197e-9
0.059, 2.204e-9
0.060, 2.210e-9
0.061, 2.217e-9
0.062, 2.223e-9
0.063, 2.231e-9
0.064, 2.235e-9
0.065, 2.242e-9
0.066, 2.247e-9
0.067, 2.255e-9
0.068, 2.261e-9
0.069, 2.269e-9
0.070, 2.276e-9
0.071, 2.282e-9
0.072, 2.290e-9
0.073, 2.297e-9
0.074, 2.304e-9
0.075, 2.311e-9
0.076, 2.320e-9
0.077, 2.325e-9
0.078, 2.332e-9
0.079, 2.339e-9
0.080, 2.344e-9
0.081, 2.351e-9
0.082, 2.357e-9
0.083, 2.366e-9
0.084, 2.373e-9
0.085, 2.379e-9
0.086, 2.386e-9
0.087, 2.393e-9
0.088, 2.400e-9
0.089, 2.408e-9
0.090, 2.415e-9
0.091, 2.423e-9
0.092, 2.428e-9
0.093, 2.436e-9
0.094, 2.445e-9
0.095, 2.452e-9
0.096, 2.459e-9
0.097, 2.467e-9
0.098, 2.476e-9
0.099, 2.484e-9
0.100, 2.492e-9
0.101, 2.501e-9
0.102, 2.512e-9
0.103, 2.527e-9
0.104, 2.537e-9
0.105, 2.549e-9
0.106, 2.563e-9
0.107, 2.579e-9
0.108, 2.595e-9
0.109, 2.615e-9
0.110, 2.644e-9
0.111, 2.680e-9
0.112, 2.722e-9
0.113, 2.771e-9
0.114, 2.823e-9
0.115, 2.884e-9
0.116, 2.966e-9
0.117, 3.054e-9
0.118, 3.150e-9
0.119, 3.266e-9
0.120, 3.367e-9
0.121, 3.464e-9
0.122, 3.563e-9
0.123, 3.694e-9
0.124, 3.784e-9
0.125, 3.850e-9
0.126, 3.886e-9
0.127, 3.925e-9
0.128, 3.945e-9
0.129, 3.954e-9
0.130, 3.936e-9
0.131, 3.927e-9
0.132, 3.911e-9
0.133, 3.883e-9
0.134, 3.867e-9
0.135, 3.833e-9
0.136, 3.793e-9
0.137, 3.759e-9
0.138, 3.713e-9
0.139, 3.660e-9
0.140, 3.603e-9
0.141, 3.535e-9
0.142, 3.470e-9
0.143, 3.403e-9
0.144, 3.342e-9
0.145, 3.287e-9
0.146, 3.225e-9
0.147, 3.171e-9
0.148, 3.120e-9
0.149, 3.080e-9
0.150, 3.044e-9
0.151, 3.012e-9
0.152, 2.981e-9
0.153, 2.958e-9
0.154, 2.934e-9
0.155, 2.916e-9
0.156, 2.898e-9
0.157, 2.884e-9
0.158, 2.870e-9
0.159, 2.860e-9
0.160, 2.855e-9
0.161, 2.848e-9
0.162, 2.844e-9
0.163, 2.843e-9
0.164, 2.840e-9
0.165, 2.838e-9
0.166, 2.837e-9
0.167, 2.835e-9
0.168, 2.834e-9
0.169, 2.834e-9
0.170, 2.835e-9
0.171, 2.837e-9
0.172, 2.839e-9
0.173, 2.840e-9
0.174, 2.844e-9
0.175, 2.845e-9
0.176, 2.847e-9
0.177, 2.849e-9
0.178, 2.851e-9
0.179, 2.854e-9
0.180, 2.855e-9
0.181, 2.859e-9
0.182, 2.862e-9
0.183, 2.863e-9
0.184, 2.866e-9
0.185, 2.870e-9
0.186, 2.873e-9
0.187, 2.877e-9
0.188, 2.880e-9
0.189, 2.881e-9
0.190, 2.887e-9
0.191, 2.889e-9
0.192, 2.893e-9
0.193, 2.896e-9
0.194, 2.898e-9
0.195, 2.902e-9
0.196, 2.904e-9
0.197, 2.906e-9
0.198, 2.909e-9
0.199, 2.913e-9
0.200, 2.917e-9
0.201, 2.919e-9
0.202, 2.922e-9
0.203, 2.925e-9
0.204, 2.928e-9
0.205, 2.928e-9
0.206, 2.931e-9
0.207, 2.934e-9
0.208, 2.936e-9
0.209, 2.940e-9
0.210, 2.944e-9
0.211, 2.947e-9
0.212, 2.949e-9
0.213, 2.953e-9
0.214, 2.955e-9
0.215, 2.957e-9
0.216, 2.961e-9
0.217, 2.963e-9
0.218, 2.965e-9
0.219, 2.968e-9
0.220, 2.971e-9
0.221, 2.973e-9
0.222, 2.977e-9
0.223, 2.980e-9
0.224, 2.981e-9
0.225, 2.985e-9
0.226, 2.986e-9
0.227, 2.990e-9
0.228, 2.994e-9
0.229, 2.998e-9
0.230, 3.000e-9
0.231, 3.001e-9
0.232, 3.005e-9
0.233, 3.009e-9
0.234, 3.010e-9
0.235, 3.013e-9
0.236, 3.017e-9
0.237, 3.019e-9
0.238, 3.022e-9
0.239, 3.024e-9
0.240, 3.025e-9
0.241, 3.030e-9
0.242, 3.033e-9
0.243, 3.035e-9
0.244, 3.039e-9
0.245, 3.044e-9
0.246, 3.045e-9
0.247, 3.048e-9
0.248, 3.052e-9
0.249, 3.056e-9
0.250, 3.058e-9
0.251, 3.061e-9
0.252, 3.063e-9
0.253, 3.065e-9
0.254, 3.067e-9
0.255, 3.069e-9
0.256, 3.071e-9
0.257, 3.076e-9
0.258, 3.078e-9
0.259, 3.079e-9
0.260, 3.080e-9
0.261, 3.083e-9
0.262, 3.086e-9
0.263, 3.090e-9
0.264, 3.093e-9
0.265, 3.096e-9
0.266, 3.097e-9
0.267, 3.100e-9
0.268, 3.103e-9
0.269, 3.107e-9
0.270, 3.109e-9
0.271, 3.112e-9
0.272, 3.118e-9
0.273, 3.120e-9
0.274, 3.122e-9
0.275, 3.126e-9
0.276, 3.129e-9
0.277, 3.133e-9
0.278, 3.137e-9
0.279, 3.139e-9
0.280, 3.144e-9
0.281, 3.148e-9
0.282, 3.151e-9
0.283, 3.154e-9
0.284, 3.158e-9
0.285, 3.161e-9
0.286, 3.165e-9
0.287, 3.170e-9
0.288, 3.174e-9
0.289, 3.179e-9
0.290, 3.182e-9
0.291, 3.187e-9
0.292, 3.189e-9
0.293, 3.191e-9
0.294, 3.195e-9
0.295, 3.198e-9
0.296, 3.203e-9
0.297, 3.207e-9
0.298, 3.209e-9
0.299, 3.213e-9
0.300, 3.217e-9
0.301, 3.219e-9
0.302, 3.224e-9
0.303, 3.228e-9
0.304, 3.231e-9
0.305, 3.234e-9
0.306, 3.238e-9
0.307, 3.245e-9
0.308, 3.253e-9
0.309, 3.254e-9
0.310, 3.257e-9
0.311, 3.260e-9
0.312, 3.264e-9
0.313, 3.266e-9
0.314, 3.269e-9
0.315, 3.273e-9
0.316, 3.278e-9
0.317, 3.281e-9
0.318, 3.287e-9
0.319, 3.289e-9
0.320, 3.293e-9
0.321, 3.299e-9
0.322, 3.301e-9
0.323, 3.305e-9
0.324, 3.309e-9
0.325, 3.313e-9
0.326, 3.316e-9
0.327, 3.320e-9
0.328, 3.325e-9
0.329, 3.329e-9
0.330, 3.331e-9
0.331, 3.335e-9
0.332, 3.338e-9
0.333, 3.342e-9
0.334, 3.346e-9
0.335, 3.351e-9
0.336, 3.355e-9
0.337, 3.359e-9
0.338, 3.364e-9
0.339, 3.370e-9
0.340, 3.375e-9
0.341, 3.381e-9
0.342, 3.384e-9
0.343, 3.387e-9
0.344, 3.393e-9
0.345, 3.397e-9
0.346, 3.401e-9
0.347, 3.406e-9
0.348, 3.410e-9
0.349, 3.413e-9
0.350, 3.417e-9
0.351, 3.423e-9
0.352, 3.426e-9
0.353, 3.431e-9
0.354, 3.435e-9
0.355, 3.440e-9
0.356, 3.445e-9
0.357, 3.450e-9
0.358, 3.453e-9
0.359, 3.458e-9
0.360, 3.464e-9
0.361, 3.473e-9
0.362, 3.484e-9
0.363, 3.497e-9
0.364, 3.504e-9
0.365, 3.503e-9
0.366, 3.499e-9
0.367, 3.511e-9
0.368, 3.522e-9
0.369, 3.524e-9
0.370, 3.532e-9
0.371, 3.537e-9
0.372, 3.545e-9
0.373, 3.551e-9
0.374, 3.560e-9
0.375, 3.567e-9
0.376, 3.570e-9
0.377, 3.565e-9
0.378, 3.573e-9
0.379, 3.584e-9
0.380, 3.589e-9
0.381, 3.590e-9
0.382, 3.598e-9
0.383, 3.605e-9
0.384, 3.620e-9
0.385, 3.616e-9
0.386, 3.607e-9
0.387, 3.609e-9
0.388, 3.619e-9
0.389, 3.621e-9
0.390, 3.627e-9
0.391, 3.636e-9
0.392, 3.670e-9
0.393, 3.690e-9
0.394, 3.705e-9
0.395, 3.697e-9
0.396, 3.698e-9
0.397, 3.704e-9
0.398, 3.705e-9
0.399, 3.716e-9
0.400, 3.728e-9
0.401, 3.727e-9
0.402, 3.698e-9
0.403, 3.681e-9
0.404, 3.686e-9
0.405, 3.691e-9
0.406, 3.697e-9
0.407, 3.701e-9
0.408, 3.706e-9
0.409, 3.710e-9
0.410, 3.708e-9
0.411, 3.715e-9
0.412, 3.722e-9
0.413, 3.727e-9
0.414, 3.735e-9
0.415, 3.742e-9
0.416, 3.748e-9
0.417, 3.755e-9
0.418, 3.761e-9
0.419, 3.765e-9
0.420, 3.770e-9
0.421, 3.775e-9
0.422, 3.783e-9
0.423, 3.787e-9
0.424, 3.793e-9
0.425, 3.798e-9
0.426, 3.803e-9
0.427, 3.809e-9
0.428, 3.813e-9
0.429, 3.819e-9
0.430, 3.825e-9
0.431, 3.830e-9
0.432, 3.836e-9
0.433, 3.842e-9
0.434, 3.847e-9
0.435, 3.854e-9
0.436, 3.861e-9
0.437, 3.867e-9
0.438, 3.873e-9
0.439, 3.878e-9
0.440, 3.887e-9
0.441, 3.894e-9
0.442, 3.901e-9
0.443, 3.907e-9
0.444, 3.913e-9
0.445, 3.918e-9
0.446, 3.924e-9
0.447, 3.929e-9
0.448, 3.934e-9
0.449, 3.940e-9
0.450, 3.948e-9
0.451, 3.953e-9
0.452, 3.958e-9
0.453, 3.966e-9
0.454, 3.973e-9
0.455, 3.978e-9
0.456, 3.986e-9
0.457, 3.993e-9
0.458, 3.999e-9
0.459, 4.005e-9
0.460, 4.012e-9
0.461, 4.018e-9
0.462, 4.024e-9
0.463, 4.030e-9
0.464, 4.036e-9
0.465, 4.042e-9
0.466, 4.047e-9
0.467, 4.054e-9
0.468, 4.057e-9
0.469, 4.065e-9
0.470, 4.069e-9
0.471, 4.075e-9
0.472, 4.082e-9
0.473, 4.091e-9
0.474, 4.096e-9
0.475, 4.104e-9
0.476, 4.113e-9
0.477, 4.120e-9
0.478, 4.128e-9
0.479, 4.135e-9
0.480, 4.143e-9
0.481, 4.150e-9
0.482, 4.157e-9
0.483, 4.165e-9
0.484, 4.173e-9
0.485, 4.180e-9
0.486, 4.186e-9
0.487, 4.193e-9
0.488, 4.201e-9
0.489, 4.209e-9
0.490, 4.215e-9
0.491, 4.221e-9
0.492, 4.227e-9
0.493, 4.234e-9
0.494, 4.242e-9
0.495, 4.249e-9
0.496, 4.256e-9
0.497, 4.263e-9
0.498, 4.270e-9
0.499, 4.277e-9
0.500, 4.252e-9
0.499, 4.101e-9
0.498, 3.988e-9
0.497, 3.907e-9
0.496, 3.837e-9
0.495, 3.777e-9
0.494, 3.720e-9
0.493, 3.662e-9
0.492, 3.607e-9
0.491, 3.562e-9
0.490, 3.519e-9
0.489, 3.474e-9
0.488, 3.432e-9
0.487, 3.389e-9
0.486, 3.349e-9
0.485, 3.313e-9
0.484, 3.278e-9
0.483, 3.243e-9
0.482, 3.207e-9
0.481, 3.171e-9
0.480, 3.134e-9
0.479, 3.102e-9
0.478, 3.074e-9
0.477, 3.046e-9
0.476, 3.017e-9
0.475, 2.987e-9
0.474, 2.959e-9
0.473, 2.932e-9
0.472, 2.905e-9
0.471, 2.878e-9
0.470, 2.852e-9
0.469, 2.827e-9
0.468, 2.804e-9
0.467, 2.779e-9
0.466, 2.754e-9
0.465, 2.731e-9
0.464, 2.707e-9
0.463, 2.681e-9
0.462, 2.657e-9
0.461, 2.632e-9
0.460, 2.610e-9
0.459, 2.589e-9
0.458, 2.570e-9
0.457, 2.552e-9
0.456, 2.530e-9
0.455, 2.508e-9
0.454, 2.488e-9
0.453, 2.468e-9
0.452, 2.449e-9
0.451, 2.430e-9
0.450, 2.410e-9
0.449, 2.392e-9
0.448, 2.372e-9
0.447, 2.354e-9
0.446, 2.336e-9
0.445, 2.319e-9
0.444, 2.300e-9
0.443, 2.281e-9
0.442, 2.263e-9
0.441, 2.246e-9
0.440, 2.230e-9
0.439, 2.213e-9
0.438, 2.198e-9
0.437, 2.180e-9
0.436, 2.162e-9
0.435, 2.143e-9
0.434, 2.127e-9
0.433, 2.113e-9
0.432, 2.098e-9
0.431, 2.083e-9
0.430, 2.069e-9
0.429, 2.054e-9
0.428, 2.038e-9
0.427, 2.024e-9
0.426, 2.009e-9
0.425, 1.995e-9
0.424, 1.981e-9
0.423, 1.966e-9
0.422, 1.953e-9
0.421, 1.938e-9
0.420, 1.923e-9
0.419, 1.908e-9
0.418, 1.893e-9
0.417, 1.878e-9
0.416, 1.864e-9
0.415, 1.850e-9
0.414, 1.837e-9
0.413, 1.823e-9
0.412, 1.808e-9
0.411, 1.795e-9
0.410, 1.783e-9
0.409, 1.774e-9
0.408, 1.758e-9
0.407, 1.744e-9
0.406, 1.731e-9
0.405, 1.719e-9
0.404, 1.706e-9
0.403, 1.691e-9
0.402, 1.677e-9
0.401, 1.663e-9
0.400, 1.651e-9
0.399, 1.638e-9
0.398, 1.628e-9
0.397, 1.616e-9
0.396, 1.604e-9
0.395, 1.594e-9
0.394, 1.582e-9
0.393, 1.569e-9
0.392, 1.558e-9
0.391, 1.545e-9
0.390, 1.533e-9
0.389, 1.521e-9
0.388, 1.510e-9
0.387, 1.499e-9
0.386, 1.488e-9
0.385, 1.476e-9
0.384, 1.465e-9
0.383, 1.453e-9
0.382, 1.441e-9
0.381, 1.428e-9
0.380, 1.417e-9
0.379, 1.406e-9
0.378, 1.394e-9
0.377, 1.382e-9
0.376, 1.371e-9
0.375, 1.360e-9
0.374, 1.351e-9
0.373, 1.340e-9
0.372, 1.328e-9
0.371, 1.317e-9
0.370, 1.305e-9
0.369, 1.294e-9
0.368, 1.283e-9
0.367, 1.274e-9
0.366, 1.263e-9
0.365, 1.251e-9
0.364, 1.241e-9
0.363, 1.231e-9
0.362, 1.221e-9
0.361, 1.211e-9
0.360, 1.201e-9
0.359, 1.189e-9
0.358, 1.179e-9
0.357, 1.167e-9
0.356, 1.157e-9
0.355, 1.147e-9
0.354, 1.137e-9
0.353, 1.128e-9
0.352, 1.120e-9
0.351, 1.111e-9
0.350, 1.102e-9
0.349, 1.092e-9
0.348, 1.083e-9
0.347, 1.074e-9
0.346, 1.062e-9
0.345, 1.053e-9
0.344, 1.043e-9
0.343, 1.033e-9
0.342, 1.023e-9
0.341, 1.013e-9
0.340, 1.004e-9
0.339, 9.944e-10
0.338, 9.855e-10
0.337, 9.756e-10
0.336, 9.670e-10
0.335, 9.567e-10
0.334, 9.468e-10
0.333, 9.381e-10
0.332, 9.297e-10
0.331, 9.186e-10
0.330, 9.096e-10
0.329, 9.005e-10
0.328, 8.908e-10
0.327, 8.814e-10
0.326, 8.711e-10
0.325, 8.619e-10
0.324, 8.519e-10
0.323, 8.435e-10
0.322, 8.350e-10
0.321, 8.248e-10
0.320, 8.158e-10
0.319, 8.071e-10
0.318, 7.979e-10
0.317, 7.902e-10
0.316, 7.814e-10
0.315, 7.725e-10
0.314, 7.634e-10
0.313, 7.534e-10
0.312, 7.468e-10
0.311, 7.374e-10
0.310, 7.297e-10
0.309, 7.199e-10
0.308, 7.112e-10
0.307, 6.958e-10
0.306, 6.879e-10
0.305, 6.795e-10
0.304, 6.711e-10
0.303, 6.645e-10
0.302, 6.563e-10
0.301, 6.482e-10
0.300, 6.396e-10
0.299, 6.321e-10
0.298, 6.243e-10
0.297, 6.167e-10
0.296, 6.088e-10
0.295, 5.995e-10
0.294, 5.915e-10
0.293, 5.828e-10
0.292, 5.746e-10
0.291, 5.667e-10
0.290, 5.572e-10
0.289, 5.494e-10
0.288, 5.402e-10
0.287, 5.325e-10
0.286, 5.251e-10
0.285, 5.157e-10
0.284, 5.072e-10
0.283, 4.975e-10
0.282, 4.884e-10
0.281, 4.806e-10
0.280, 4.706e-10
0.279, 4.610e-10
0.278, 4.517e-10
0.277, 4.424e-10
0.276, 4.334e-10
0.275, 4.242e-10
0.274, 4.169e-10
0.273, 4.089e-10
0.272, 4.013e-10
0.271, 3.938e-10
0.270, 3.871e-10
0.269, 3.799e-10
0.268, 3.711e-10
0.267, 3.628e-10
0.266, 3.543e-10
0.265, 3.482e-10
0.264, 3.410e-10
0.263, 3.328e-10
0.262, 3.243e-10
0.261, 3.168e-10
0.260, 3.093e-10
0.259, 3.027e-10
0.258, 2.947e-10
0.257, 2.873e-10
0.256, 2.806e-10
0.255, 2.727e-10
0.254, 2.650e-10
0.253, 2.572e-10
0.252, 2.492e-10
0.251, 2.406e-10
0.250, 2.320e-10
0.249, 2.229e-10
0.248, 2.138e-10
0.247, 2.037e-10
0.246, 1.969e-10
0.245, 1.894e-10
0.244, 1.810e-10
0.243, 1.749e-10
0.242, 1.661e-10
0.241, 1.587e-10
0.240, 1.521e-10
0.239, 1.460e-10
0.238, 1.400e-10
0.237, 1.325e-10
0.236, 1.264e-10
0.235, 1.186e-10
0.234, 1.109e-10
0.233, 1.045e-10
0.232, 9.752e-11
0.231, 8.894e-11
0.230, 8.124e-11
0.229, 7.276e-11
0.228, 6.701e-11
0.227, 6.038e-11
0.226, 5.161e-11
0.225, 4.430e-11
0.224, 3.757e-11
0.223, 2.958e-11
0.222, 2.324e-11
0.221, 1.495e-11
0.220, 7.253e-12
0.219, 2.340e-13
0.218, -9.124e-12
0.217, -1.702e-11
0.216, -2.638e-11
0.215, -3.418e-11
0.214, -4.188e-11
0.213, -5.182e-11
0.212, -5.991e-11
0.211, -6.742e-11
0.210, -7.609e-11
0.209, -8.428e-11
0.208, -9.042e-11
0.207, -9.735e-11
0.206, -1.042e-10
0.205, -1.088e-10
0.204, -1.145e-10
0.203, -1.235e-10
0.202, -1.312e-10
0.201, -1.385e-10
0.200, -1.456e-10
0.199, -1.532e-10
0.198, -1.623e-10
0.197, -1.689e-10
0.196, -1.768e-10
0.195, -1.841e-10
0.194, -1.904e-10
0.193, -1.986e-10
0.192, -2.069e-10
0.191, -2.134e-10
0.190, -2.213e-10
0.189, -2.297e-10
0.188, -2.379e-10
0.187, -2.456e-10
0.186, -2.556e-10
0.185, -2.624e-10
0.184, -2.719e-10
0.183, -2.816e-10
0.182, -2.888e-10
0.181, -2.982e-10
0.180, -3.065e-10
0.179, -3.132e-10
0.178, -3.212e-10
0.177, -3.282e-10
0.176, -3.341e-10
0.175, -3.410e-10
0.174, -3.479e-10
0.173, -3.554e-10
0.172, -3.638e-10
0.171, -3.715e-10
0.170, -3.788e-10
0.169, -3.865e-10
0.168, -3.955e-10
0.167, -4.030e-10
0.166, -4.096e-10
0.165, -4.180e-10
0.164, -4.260e-10
0.163, -4.348e-10
0.162, -4.430e-10
0.161, -4.508e-10
0.160, -4.606e-10
0.159, -4.687e-10
0.158, -4.760e-10
0.157, -4.844e-10
0.156, -4.933e-10
0.155, -5.027e-10
0.154, -5.115e-10
0.153, -5.207e-10
0.152, -5.306e-10
0.151, -5.406e-10
0.150, -5.478e-10
0.149, -5.576e-10
0.148, -5.653e-10
0.147, -5.739e-10
0.146, -5.815e-10
0.145, -5.897e-10
0.144, -5.971e-10
0.143, -6.044e-10
0.142, -6.129e-10
0.141, -6.219e-10
0.140, -6.312e-10
0.139, -6.399e-10
0.138, -6.472e-10
0.137, -6.571e-10
0.136, -6.652e-10
0.135, -6.729e-10
0.134, -6.830e-10
0.133, -6.923e-10
0.132, -7.009e-10
0.131, -7.080e-10
0.130, -7.176e-10
0.129, -7.266e-10
0.128, -7.354e-10
0.127, -7.451e-10
0.126, -7.553e-10
0.125, -7.655e-10
0.124, -7.753e-10
0.123, -7.845e-10
0.122, -7.930e-10
0.121, -8.023e-10
0.120, -8.112e-10
0.119, -8.189e-10
0.118, -8.271e-10
0.117, -8.352e-10
0.116, -8.441e-10
0.115, -8.509e-10
0.114, -8.609e-10
0.113, -8.708e-10
0.112, -8.797e-10
0.111, -8.885e-10
0.110, -8.990e-10
0.109, -9.081e-10
0.108, -9.182e-10
0.107, -9.276e-10
0.106, -9.373e-10
0.105, -9.463e-10
0.104, -9.551e-10
0.103, -9.660e-10
0.102, -9.821e-10
0.101, -9.913e-10
0.100, -1.000e-9
0.099, -1.011e-9
0.098, -1.022e-9
0.097, -1.033e-9
0.096, -1.044e-9
0.095, -1.052e-9
0.094, -1.061e-9
0.093, -1.070e-9
0.092, -1.078e-9
0.091, -1.088e-9
0.090, -1.098e-9
0.089, -1.107e-9
0.088, -1.119e-9
0.087, -1.129e-9
0.086, -1.137e-9
0.085, -1.148e-9
0.084, -1.157e-9
0.083, -1.167e-9
0.082, -1.178e-9
0.081, -1.188e-9
0.080, -1.198e-9
0.079, -1.208e-9
0.078, -1.219e-9
0.077, -1.229e-9
0.076, -1.241e-9
0.075, -1.253e-9
0.074, -1.263e-9
0.073, -1.273e-9
0.072, -1.284e-9
0.071, -1.294e-9
0.070, -1.305e-9
0.069, -1.314e-9
0.068, -1.322e-9
0.067, -1.332e-9
0.066, -1.343e-9
0.065, -1.352e-9
0.064, -1.362e-9
0.063, -1.371e-9
0.062, -1.380e-9
0.061, -1.391e-9
0.060, -1.401e-9
0.059, -1.412e-9
0.058, -1.422e-9
0.057, -1.432e-9
0.056, -1.441e-9
0.055, -1.453e-9
0.054, -1.461e-9
0.053, -1.472e-9
0.052, -1.485e-9
0.051, -1.495e-9
0.050, -1.508e-9
0.049, -1.518e-9
0.048, -1.530e-9
0.047, -1.539e-9
0.046, -1.547e-9
0.045, -1.557e-9
0.044, -1.566e-9
0.043, -1.575e-9
0.042, -1.585e-9
0.041, -1.593e-9
0.040, -1.603e-9
0.039, -1.613e-9
0.038, -1.621e-9
0.037, -1.631e-9
0.036, -1.640e-9
0.035, -1.649e-9
0.034, -1.658e-9
0.033, -1.666e-9
0.032, -1.676e-9
0.031, -1.686e-9
0.030, -1.694e-9
0.029, -1.704e-9
0.028, -1.714e-9
0.027, -1.725e-9
0.026, -1.734e-9
0.025, -1.743e-9
0.024, -1.754e-9
0.023, -1.764e-9
0.022, -1.771e-9
0.021, -1.780e-9
0.020, -1.789e-9
0.019, -1.797e-9
0.018, -1.805e-9
0.017, -1.813e-9
0.016, -1.822e-9
0.015, -1.831e-9
0.014, -1.840e-9
0.013, -1.850e-9
0.012, -1.858e-9
0.011, -1.866e-9
0.010, -1.876e-9
0.009, -1.885e-9
0.008, -1.894e-9
0.007, -1.902e-9
0.006, -1.910e-9
0.005, -1.918e-9
0.004, -1.927e-9
0.003, -1.933e-9
0.002, -1.941e-9
0.001, -1.950e-9
-0.000, -1.953e-9
-0.001, -1.960e-9
-0.002, -1.971e-9
-0.003, -1.980e-9
-0.004, -1.988e-9
-0.005, -1.996e-9
-0.006, -2.005e-9
-0.007, -2.012e-9
-0.008, -2.020e-9
-0.009, -2.028e-9
-0.010, -2.034e-9
-0.011, -2.043e-9
-0.012, -2.049e-9
-0.013, -2.055e-9
-0.014, -2.063e-9
-0.015, -2.072e-9
-0.016, -2.079e-9
-0.017, -2.087e-9
-0.018, -2.094e-9
-0.019, -2.102e-9
-0.020, -2.112e-9
-0.021, -2.120e-9
-0.022, -2.129e-9
-0.023, -2.137e-9
-0.024, -2.149e-9
-0.025, -2.159e-9
-0.026, -2.166e-9
-0.027, -2.176e-9
-0.028, -2.189e-9
-0.029, -2.200e-9
-0.030, -2.210e-9
-0.031, -2.220e-9
-0.032, -2.232e-9
-0.033, -2.242e-9
-0.034, -2.253e-9
-0.035, -2.267e-9
-0.036, -2.279e-9
-0.037, -2.294e-9
-0.038, -2.304e-9
-0.039, -2.316e-9
-0.040, -2.333e-9
-0.041, -2.352e-9
-0.042, -2.366e-9
-0.043, -2.386e-9
-0.044, -2.401e-9
-0.045, -2.411e-9
-0.046, -2.429e-9
-0.047, -2.458e-9
-0.048, -2.474e-9
-0.049, -2.486e-9
-0.050, -2.508e-9
-0.051, -2.530e-9
-0.052, -2.535e-9
-0.053, -2.553e-9
-0.054, -2.567e-9
-0.055, -2.578e-9
-0.056, -2.591e-9
-0.057, -2.602e-9
-0.058, -2.616e-9
-0.059, -2.613e-9
-0.060, -2.610e-9
-0.061, -2.626e-9
-0.062, -2.624e-9
-0.063, -2.615e-9
-0.064, -2.613e-9
-0.065, -2.615e-9
-0.066, -2.619e-9
-0.067, -2.606e-9
-0.068, -2.594e-9
-0.069, -2.589e-9
-0.070, -2.586e-9
-0.071, -2.586e-9
-0.072, -2.558e-9
-0.073, -2.535e-9
-0.074, -2.520e-9
-0.075, -2.519e-9
-0.076, -2.507e-9
-0.077, -2.507e-9
-0.078, -2.512e-9
-0.079, -2.506e-9
-0.080, -2.505e-9
-0.081, -2.490e-9
-0.082, -2.466e-9
-0.083, -2.464e-9
-0.084, -2.470e-9
-0.085, -2.469e-9
-0.086, -2.467e-9
-0.087, -2.470e-9
-0.088, -2.465e-9
-0.089, -2.472e-9
-0.090, -2.485e-9
-0.091, -2.485e-9
-0.092, -2.477e-9
-0.093, -2.476e-9
-0.094, -2.475e-9
-0.095, -2.490e-9
-0.096, -2.500e-9
-0.097, -2.483e-9
-0.098, -2.478e-9
-0.099, -2.493e-9
-0.100, -2.495e-9
-0.101, -2.495e-9
-0.102, -2.497e-9
-0.103, -2.500e-9
-0.104, -2.516e-9
-0.105, -2.506e-9
-0.106, -2.509e-9
-0.107, -2.524e-9
-0.108, -2.514e-9
-0.109, -2.511e-9
-0.110, -2.518e-9
-0.111, -2.519e-9
-0.112, -2.517e-9
-0.113, -2.520e-9
-0.114, -2.519e-9
-0.115, -2.520e-9
-0.116, -2.525e-9
-0.117, -2.533e-9
-0.118, -2.536e-9
-0.119, -2.535e-9
-0.120, -2.544e-9
-0.121, -2.544e-9
-0.122, -2.548e-9
-0.123, -2.555e-9
-0.124, -2.556e-9
-0.125, -2.555e-9
-0.126, -2.558e-9
-0.127, -2.559e-9
-0.128, -2.561e-9
-0.129, -2.565e-9
-0.130, -2.568e-9
-0.131, -2.571e-9
-0.132, -2.575e-9
-0.133, -2.579e-9
-0.134, -2.578e-9
-0.135, -2.581e-9
-0.136, -2.584e-9
-0.137, -2.590e-9
-0.138, -2.599e-9
-0.139, -2.605e-9
-0.140, -2.600e-9
-0.141, -2.600e-9
-0.142, -2.603e-9
-0.143, -2.606e-9
-0.144, -2.609e-9
-0.145, -2.612e-9
-0.146, -2.616e-9
-0.147, -2.618e-9
-0.148, -2.621e-9
-0.149, -2.625e-9
-0.150, -2.627e-9
-0.151, -2.631e-9
-0.152, -2.638e-9
-0.153, -2.641e-9
-0.154, -2.640e-9
-0.155, -2.642e-9
-0.156, -2.645e-9
-0.157, -2.650e-9
-0.158, -2.655e-9
-0.159, -2.656e-9
-0.160, -2.657e-9
-0.161, -2.661e-9
-0.162, -2.662e-9
-0.163, -2.665e-9
-0.164, -2.669e-9
-0.165, -2.671e-9
-0.166, -2.674e-9
-0.167, -2.679e-9
-0.168, -2.680e-9
-0.169, -2.682e-9
-0.170, -2.685e-9
-0.171, -2.688e-9
-0.172, -2.692e-9
-0.173, -2.696e-9
-0.174, -2.700e-9
-0.175, -2.703e-9
-0.176, -2.705e-9
-0.177, -2.709e-9
-0.178, -2.712e-9
-0.179, -2.716e-9
-0.180, -2.720e-9
-0.181, -2.721e-9
-0.182, -2.723e-9
-0.183, -2.728e-9
-0.184, -2.734e-9
-0.185, -2.741e-9
-0.186, -2.741e-9
-0.187, -2.744e-9
-0.188, -2.748e-9
-0.189, -2.749e-9
-0.190, -2.750e-9
-0.191, -2.753e-9
-0.192, -2.755e-9
-0.193, -2.757e-9
-0.194, -2.761e-9
-0.195, -2.763e-9
-0.196, -2.764e-9
-0.197, -2.767e-9
-0.198, -2.770e-9
-0.199, -2.773e-9
-0.200, -2.776e-9
-0.201, -2.780e-9
-0.202, -2.788e-9
-0.203, -2.787e-9
-0.204, -2.788e-9
-0.205, -2.787e-9
-0.206, -2.790e-9
-0.207, -2.794e-9
-0.208, -2.797e-9
-0.209, -2.801e-9
-0.210, -2.805e-9
-0.211, -2.809e-9
-0.212, -2.814e-9
-0.213, -2.820e-9
-0.214, -2.820e-9
-0.215, -2.822e-9
-0.216, -2.824e-9
-0.217, -2.827e-9
-0.218, -2.828e-9
-0.219, -2.832e-9
-0.220, -2.837e-9
-0.221, -2.841e-9
-0.222, -2.844e-9
-0.223, -2.848e-9
-0.224, -2.850e-9
-0.225, -2.853e-9
-0.226, -2.856e-9
-0.227, -2.858e-9
-0.228, -2.861e-9
-0.229, -2.864e-9
-0.230, -2.870e-9
-0.231, -2.871e-9
-0.232, -2.873e-9
-0.233, -2.874e-9
-0.234, -2.876e-9
-0.235, -2.878e-9
-0.236, -2.883e-9
-0.237, -2.887e-9
-0.238, -2.890e-9
-0.239, -2.893e-9
-0.240, -2.896e-9
-0.241, -2.897e-9
-0.242, -2.901e-9
-0.243, -2.904e-9
-0.244, -2.906e-9
-0.245, -2.909e-9
-0.246, -2.913e-9
-0.247, -2.915e-9
-0.248, -2.917e-9
-0.249, -2.921e-9
-0.250, -2.922e-9
-0.251, -2.924e-9
-0.252, -2.928e-9
-0.253, -2.932e-9
-0.254, -2.936e-9
-0.255, -2.937e-9
-0.256, -2.939e-9
-0.257, -2.943e-9
-0.258, -2.944e-9
-0.259, -2.948e-9
-0.260, -2.951e-9
-0.261, -2.953e-9
-0.262, -2.956e-9
-0.263, -2.959e-9
-0.264, -2.963e-9
-0.265, -2.966e-9
-0.266, -2.967e-9
-0.267, -2.969e-9
-0.268, -2.972e-9
-0.269, -2.975e-9
-0.270, -2.978e-9
-0.271, -2.982e-9
-0.272, -2.983e-9
-0.273, -2.987e-9
-0.274, -2.989e-9
-0.275, -2.994e-9
-0.276, -2.994e-9
-0.277, -2.997e-9
-0.278, -3.001e-9
-0.279, -3.003e-9
-0.280, -3.005e-9
-0.281, -3.006e-9
-0.282, -3.008e-9
-0.283, -3.012e-9
-0.284, -3.014e-9
-0.285, -3.016e-9
-0.286, -3.018e-9
-0.287, -3.022e-9
-0.288, -3.025e-9
-0.289, -3.027e-9
-0.290, -3.030e-9
-0.291, -3.034e-9
-0.292, -3.035e-9
-0.293, -3.037e-9
-0.294, -3.039e-9
-0.295, -3.039e-9
-0.296, -3.043e-9
-0.297, -3.046e-9
-0.298, -3.049e-9
-0.299, -3.050e-9
-0.300, -3.054e-9
-0.301, -3.056e-9
-0.302, -3.058e-9
-0.303, -3.058e-9
-0.304, -3.059e-9
-0.305, -3.063e-9
-0.306, -3.066e-9
-0.307, -3.071e-9
-0.308, -3.076e-9
-0.309, -3.076e-9
-0.310, -3.076e-9
-0.311, -3.079e-9
-0.312, -3.081e-9
-0.313, -3.084e-9
-0.314, -3.084e-9
-0.315, -3.086e-9
-0.316, -3.089e-9
-0.317, -3.093e-9
-0.318, -3.094e-9
-0.319, -3.096e-9
-0.320, -3.097e-9
-0.321, -3.098e-9
-0.322, -3.100e-9
-0.323, -3.103e-9
-0.324, -3.103e-9
-0.325, -3.107e-9
-0.326, -3.108e-9
-0.327, -3.111e-9
-0.328, -3.113e-9
-0.329, -3.115e-9
-0.330, -3.116e-9
-0.331, -3.118e-9
-0.332, -3.119e-9
-0.333, -3.120e-9
-0.334, -3.122e-9
-0.335, -3.124e-9
-0.336, -3.126e-9
-0.337, -3.127e-9
-0.338, -3.129e-9
-0.339, -3.131e-9
-0.340, -3.133e-9
-0.341, -3.136e-9
-0.342, -3.138e-9
-0.343, -3.139e-9
-0.344, -3.141e-9
-0.345, -3.143e-9
-0.346, -3.143e-9
-0.347, -3.146e-9
-0.348, -3.147e-9
-0.349, -3.147e-9
-0.350, -3.149e-9
-0.351, -3.150e-9
-0.352, -3.153e-9
-0.353, -3.155e-9
-0.354, -3.158e-9
-0.355, -3.158e-9
-0.356, -3.160e-9
-0.357, -3.161e-9
-0.358, -3.163e-9
-0.359, -3.165e-9
-0.360, -3.166e-9
-0.361, -3.169e-9
-0.362, -3.170e-9
-0.363, -3.173e-9
-0.364, -3.175e-9
-0.365, -3.176e-9
-0.366, -3.179e-9
-0.367, -3.180e-9
-0.368, -3.180e-9
-0.369, -3.183e-9
-0.370, -3.185e-9
-0.371, -3.188e-9
-0.372, -3.187e-9
-0.373, -3.189e-9
-0.374, -3.190e-9
-0.375, -3.193e-9
-0.376, -3.194e-9
-0.377, -3.197e-9
-0.378, -3.199e-9
-0.379, -3.200e-9
-0.380, -3.201e-9
-0.381, -3.203e-9
-0.382, -3.207e-9
-0.383, -3.208e-9
-0.384, -3.209e-9
-0.385, -3.212e-9
-0.386, -3.213e-9
-0.387, -3.214e-9
-0.388, -3.214e-9
-0.389, -3.218e-9
-0.390, -3.219e-9
-0.391, -3.221e-9
-0.392, -3.223e-9
-0.393, -3.225e-9
-0.394, -3.226e-9
-0.395, -3.228e-9
-0.396, -3.230e-9
-0.397, -3.231e-9
-0.398, -3.232e-9
-0.399, -3.235e-9
-0.400, -3.236e-9
-0.401, -3.238e-9
-0.402, -3.241e-9
-0.403, -3.243e-9
-0.404, -3.244e-9
-0.405, -3.245e-9
-0.406, -3.247e-9
-0.407, -3.247e-9
-0.408, -3.248e-9
-0.409, -3.251e-9
-0.410, -3.251e-9
-0.411, -3.253e-9
-0.412, -3.254e-9
-0.413, -3.255e-9
-0.414, -3.259e-9
-0.415, -3.260e-9
-0.416, -3.262e-9
-0.417, -3.266e-9
-0.418, -3.266e-9
-0.419, -3.266e-9
-0.420, -3.265e-9
-0.421, -3.268e-9
-0.422, -3.271e-9
-0.423, -3.273e-9
-0.424, -3.275e-9
-0.425, -3.277e-9
-0.426, -3.278e-9
-0.427, -3.280e-9
-0.428, -3.282e-9
-0.429, -3.285e-9
-0.430, -3.287e-9
-0.431, -3.289e-9
-0.432, -3.289e-9
-0.433, -3.292e-9
-0.434, -3.294e-9
-0.435, -3.296e-9
-0.436, -3.298e-9
-0.437, -3.300e-9
-0.438, -3.302e-9
-0.439, -3.302e-9
-0.440, -3.305e-9
-0.441, -3.310e-9
-0.442, -3.310e-9
-0.443, -3.313e-9
-0.444, -3.316e-9
-0.445, -3.317e-9
-0.446, -3.322e-9
-0.447, -3.324e-9
-0.448, -3.324e-9
-0.449, -3.326e-9
-0.450, -3.327e-9
-0.451, -3.329e-9
-0.452, -3.332e-9
-0.453, -3.333e-9
-0.454, -3.335e-9
-0.455, -3.338e-9
-0.456, -3.340e-9
-0.457, -3.342e-9
-0.458, -3.344e-9
-0.459, -3.346e-9
-0.460, -3.349e-9
-0.461, -3.352e-9
-0.462, -3.354e-9
-0.463, -3.357e-9
-0.464, -3.359e-9
-0.465, -3.361e-9
-0.466, -3.366e-9
-0.467, -3.367e-9
-0.468, -3.369e-9
-0.469, -3.372e-9
-0.470, -3.374e-9
-0.471, -3.375e-9
-0.472, -3.379e-9
-0.473, -3.379e-9
-0.474, -3.381e-9
-0.475, -3.384e-9
-0.476, -3.387e-9
-0.477, -3.389e-9
-0.478, -3.391e-9
-0.479, -3.393e-9
-0.480, -3.397e-9
-0.481, -3.401e-9
-0.482, -3.403e-9
-0.483, -3.404e-9
-0.484, -3.405e-9
-0.485, -3.408e-9
-0.486, -3.411e-9
-0.487, -3.413e-9
-0.488, -3.416e-9
-0.489, -3.418e-9
-0.490, -3.421e-9
-0.491, -3.424e-9
-0.492, -3.427e-9
-0.493, -3.431e-9
-0.494, -3.433e-9
-0.495, -3.435e-9
-0.496, -3.436e-9
-0.497, -3.439e-9
-0.498, -3.442e-9
-0.499, -3.444e-9
