Nov. 20, 2024   15:52:17
Cyclic Voltammetry
File: +12 2319-1 fto cv_cells_dark_surface_5.bin
Data Source:  Experiment
Instrument Model:  CHI920C
Ref. Electrode: 
Header: 
Note: 

Init E (V) = -0.5
High E (V) = 0.5
Low E (V) = -0.5
Init P/N = P
Scan Rate (V/s) = 0.05
Segment = 2
Sample Interval (V) = 0.001
Quiet Time (sec) = 10
Sensitivity (A/V) = 1e-7

Results:

Channel 1:
Segment 1:
Ep = 0.125V
ip = 1.908e-9A
Ah = 5.166e-10C

Segment 2:

Potential/V, Current/A

-0.500, -1.450e-9
-0.499, -1.381e-9
-0.498, -1.329e-9
-0.497, -1.294e-9
-0.496, -1.263e-9
-0.495, -1.233e-9
-0.494, -1.208e-9
-0.493, -1.186e-9
-0.492, -1.167e-9
-0.491, -1.148e-9
-0.490, -1.131e-9
-0.489, -1.116e-9
-0.488, -1.100e-9
-0.487, -1.086e-9
-0.486, -1.074e-9
-0.485, -1.061e-9
-0.484, -1.047e-9
-0.483, -1.034e-9
-0.482, -1.021e-9
-0.481, -1.008e-9
-0.480, -9.952e-10
-0.479, -9.813e-10
-0.478, -9.708e-10
-0.477, -9.588e-10
-0.476, -9.484e-10
-0.475, -9.377e-10
-0.474, -9.267e-10
-0.473, -9.168e-10
-0.472, -9.081e-10
-0.471, -8.975e-10
-0.470, -8.879e-10
-0.469, -8.780e-10
-0.468, -8.702e-10
-0.467, -8.603e-10
-0.466, -8.520e-10
-0.465, -8.442e-10
-0.464, -8.353e-10
-0.463, -8.287e-10
-0.462, -8.213e-10
-0.461, -8.133e-10
-0.460, -8.057e-10
-0.459, -7.986e-10
-0.458, -7.911e-10
-0.457, -7.825e-10
-0.456, -7.720e-10
-0.455, -7.637e-10
-0.454, -7.547e-10
-0.453, -7.464e-10
-0.452, -7.385e-10
-0.451, -7.309e-10
-0.450, -7.224e-10
-0.449, -7.151e-10
-0.448, -7.089e-10
-0.447, -7.021e-10
-0.446, -6.947e-10
-0.445, -6.872e-10
-0.444, -6.801e-10
-0.443, -6.726e-10
-0.442, -6.656e-10
-0.441, -6.578e-10
-0.440, -6.507e-10
-0.439, -6.440e-10
-0.438, -6.361e-10
-0.437, -6.284e-10
-0.436, -6.228e-10
-0.435, -6.152e-10
-0.434, -6.086e-10
-0.433, -6.026e-10
-0.432, -5.962e-10
-0.431, -5.901e-10
-0.430, -5.842e-10
-0.429, -5.770e-10
-0.428, -5.701e-10
-0.427, -5.640e-10
-0.426, -5.564e-10
-0.425, -5.511e-10
-0.424, -5.449e-10
-0.423, -5.370e-10
-0.422, -5.291e-10
-0.421, -5.203e-10
-0.420, -5.138e-10
-0.419, -5.059e-10
-0.418, -4.990e-10
-0.417, -4.918e-10
-0.416, -4.844e-10
-0.415, -4.766e-10
-0.414, -4.694e-10
-0.413, -4.641e-10
-0.412, -4.581e-10
-0.411, -4.520e-10
-0.410, -4.454e-10
-0.409, -4.381e-10
-0.408, -4.321e-10
-0.407, -4.261e-10
-0.406, -4.205e-10
-0.405, -4.135e-10
-0.404, -4.076e-10
-0.403, -4.016e-10
-0.402, -3.955e-10
-0.401, -3.889e-10
-0.400, -3.828e-10
-0.399, -3.766e-10
-0.398, -3.704e-10
-0.397, -3.637e-10
-0.396, -3.589e-10
-0.395, -3.534e-10
-0.394, -3.475e-10
-0.393, -3.428e-10
-0.392, -3.370e-10
-0.391, -3.318e-10
-0.390, -3.252e-10
-0.389, -3.199e-10
-0.388, -3.155e-10
-0.387, -3.087e-10
-0.386, -3.023e-10
-0.385, -2.961e-10
-0.384, -2.891e-10
-0.383, -2.836e-10
-0.382, -2.764e-10
-0.381, -2.696e-10
-0.380, -2.617e-10
-0.379, -2.556e-10
-0.378, -2.485e-10
-0.377, -2.422e-10
-0.376, -2.353e-10
-0.375, -2.297e-10
-0.374, -2.237e-10
-0.373, -2.159e-10
-0.372, -2.107e-10
-0.371, -2.060e-10
-0.370, -2.012e-10
-0.369, -1.953e-10
-0.368, -1.897e-10
-0.367, -1.823e-10
-0.366, -1.776e-10
-0.365, -1.719e-10
-0.364, -1.658e-10
-0.363, -1.611e-10
-0.362, -1.544e-10
-0.361, -1.484e-10
-0.360, -1.427e-10
-0.359, -1.363e-10
-0.358, -1.310e-10
-0.357, -1.249e-10
-0.356, -1.189e-10
-0.355, -1.136e-10
-0.354, -1.081e-10
-0.353, -1.021e-10
-0.352, -9.783e-11
-0.351, -9.189e-11
-0.350, -8.633e-11
-0.349, -8.068e-11
-0.348, -7.512e-11
-0.347, -7.005e-11
-0.346, -6.508e-11
-0.345, -5.942e-11
-0.344, -5.280e-11
-0.343, -4.548e-11
-0.342, -4.003e-11
-0.341, -3.340e-11
-0.340, -2.618e-11
-0.339, -1.955e-11
-0.338, -1.380e-11
-0.337, -7.954e-12
-0.336, -2.203e-12
-0.335, 3.353e-12
-0.334, 9.300e-12
-0.333, 1.476e-11
-0.332, 1.973e-11
-0.331, 2.509e-11
-0.330, 3.123e-11
-0.329, 3.659e-11
-0.328, 4.332e-11
-0.327, 4.800e-11
-0.326, 5.375e-11
-0.325, 5.960e-11
-0.324, 6.535e-11
-0.323, 7.110e-11
-0.322, 7.734e-11
-0.321, 8.212e-11
-0.320, 8.816e-11
-0.319, 9.333e-11
-0.318, 9.869e-11
-0.317, 1.053e-10
-0.316, 1.103e-10
-0.315, 1.161e-10
-0.314, 1.215e-10
-0.313, 1.269e-10
-0.312, 1.317e-10
-0.311, 1.378e-10
-0.310, 1.419e-10
-0.309, 1.467e-10
-0.308, 1.524e-10
-0.307, 1.614e-10
-0.306, 1.659e-10
-0.305, 1.699e-10
-0.304, 1.742e-10
-0.303, 1.798e-10
-0.302, 1.858e-10
-0.301, 1.904e-10
-0.300, 1.964e-10
-0.299, 2.038e-10
-0.298, 2.113e-10
-0.297, 2.178e-10
-0.296, 2.230e-10
-0.295, 2.292e-10
-0.294, 2.354e-10
-0.293, 2.415e-10
-0.292, 2.475e-10
-0.291, 2.528e-10
-0.290, 2.591e-10
-0.289, 2.656e-10
-0.288, 2.708e-10
-0.287, 2.761e-10
-0.286, 2.806e-10
-0.285, 2.861e-10
-0.284, 2.914e-10
-0.283, 2.969e-10
-0.282, 3.022e-10
-0.281, 3.087e-10
-0.280, 3.156e-10
-0.279, 3.221e-10
-0.278, 3.268e-10
-0.277, 3.323e-10
-0.276, 3.380e-10
-0.275, 3.431e-10
-0.274, 3.505e-10
-0.273, 3.568e-10
-0.272, 3.616e-10
-0.271, 3.659e-10
-0.270, 3.717e-10
-0.269, 3.772e-10
-0.268, 3.815e-10
-0.267, 3.877e-10
-0.266, 3.928e-10
-0.265, 3.984e-10
-0.264, 4.055e-10
-0.263, 4.105e-10
-0.262, 4.151e-10
-0.261, 4.228e-10
-0.260, 4.279e-10
-0.259, 4.346e-10
-0.258, 4.417e-10
-0.257, 4.475e-10
-0.256, 4.547e-10
-0.255, 4.610e-10
-0.254, 4.684e-10
-0.253, 4.750e-10
-0.252, 4.801e-10
-0.251, 4.872e-10
-0.250, 4.936e-10
-0.249, 5.002e-10
-0.248, 5.067e-10
-0.247, 5.132e-10
-0.246, 5.194e-10
-0.245, 5.257e-10
-0.244, 5.317e-10
-0.243, 5.354e-10
-0.242, 5.415e-10
-0.241, 5.480e-10
-0.240, 5.540e-10
-0.239, 5.606e-10
-0.238, 5.667e-10
-0.237, 5.715e-10
-0.236, 5.781e-10
-0.235, 5.833e-10
-0.234, 5.903e-10
-0.233, 5.961e-10
-0.232, 6.023e-10
-0.231, 6.081e-10
-0.230, 6.129e-10
-0.229, 6.181e-10
-0.228, 6.245e-10
-0.227, 6.297e-10
-0.226, 6.349e-10
-0.225, 6.416e-10
-0.224, 6.477e-10
-0.223, 6.532e-10
-0.222, 6.592e-10
-0.221, 6.643e-10
-0.220, 6.698e-10
-0.219, 6.753e-10
-0.218, 6.820e-10
-0.217, 6.876e-10
-0.216, 6.937e-10
-0.215, 7.011e-10
-0.214, 7.062e-10
-0.213, 7.133e-10
-0.212, 7.191e-10
-0.211, 7.236e-10
-0.210, 7.305e-10
-0.209, 7.369e-10
-0.208, 7.424e-10
-0.207, 7.490e-10
-0.206, 7.544e-10
-0.205, 7.591e-10
-0.204, 7.619e-10
-0.203, 7.691e-10
-0.202, 7.762e-10
-0.201, 7.805e-10
-0.200, 7.867e-10
-0.199, 7.932e-10
-0.198, 8.001e-10
-0.197, 8.064e-10
-0.196, 8.131e-10
-0.195, 8.193e-10
-0.194, 8.251e-10
-0.193, 8.308e-10
-0.192, 8.367e-10
-0.191, 8.417e-10
-0.190, 8.479e-10
-0.189, 8.548e-10
-0.188, 8.611e-10
-0.187, 8.672e-10
-0.186, 8.739e-10
-0.185, 8.807e-10
-0.184, 8.851e-10
-0.183, 8.904e-10
-0.182, 8.954e-10
-0.181, 9.008e-10
-0.180, 9.069e-10
-0.179, 9.122e-10
-0.178, 9.201e-10
-0.177, 9.267e-10
-0.176, 9.339e-10
-0.175, 9.405e-10
-0.174, 9.440e-10
-0.173, 9.523e-10
-0.172, 9.584e-10
-0.171, 9.635e-10
-0.170, 9.689e-10
-0.169, 9.738e-10
-0.168, 9.805e-10
-0.167, 9.859e-10
-0.166, 9.919e-10
-0.165, 9.985e-10
-0.164, 1.004e-9
-0.163, 1.009e-9
-0.162, 1.015e-9
-0.161, 1.021e-9
-0.160, 1.027e-9
-0.159, 1.033e-9
-0.158, 1.038e-9
-0.157, 1.044e-9
-0.156, 1.050e-9
-0.155, 1.056e-9
-0.154, 1.063e-9
-0.153, 1.068e-9
-0.152, 1.074e-9
-0.151, 1.081e-9
-0.150, 1.085e-9
-0.149, 1.091e-9
-0.148, 1.097e-9
-0.147, 1.102e-9
-0.146, 1.107e-9
-0.145, 1.112e-9
-0.144, 1.116e-9
-0.143, 1.122e-9
-0.142, 1.128e-9
-0.141, 1.133e-9
-0.140, 1.138e-9
-0.139, 1.143e-9
-0.138, 1.151e-9
-0.137, 1.156e-9
-0.136, 1.163e-9
-0.135, 1.168e-9
-0.134, 1.174e-9
-0.133, 1.181e-9
-0.132, 1.188e-9
-0.131, 1.194e-9
-0.130, 1.201e-9
-0.129, 1.205e-9
-0.128, 1.213e-9
-0.127, 1.218e-9
-0.126, 1.223e-9
-0.125, 1.229e-9
-0.124, 1.234e-9
-0.123, 1.240e-9
-0.122, 1.246e-9
-0.121, 1.252e-9
-0.120, 1.257e-9
-0.119, 1.262e-9
-0.118, 1.268e-9
-0.117, 1.275e-9
-0.116, 1.281e-9
-0.115, 1.286e-9
-0.114, 1.292e-9
-0.113, 1.298e-9
-0.112, 1.303e-9
-0.111, 1.308e-9
-0.110, 1.315e-9
-0.109, 1.322e-9
-0.108, 1.329e-9
-0.107, 1.334e-9
-0.106, 1.340e-9
-0.105, 1.346e-9
-0.104, 1.352e-9
-0.103, 1.359e-9
-0.102, 1.369e-9
-0.101, 1.373e-9
-0.100, 1.377e-9
-0.099, 1.382e-9
-0.098, 1.386e-9
-0.097, 1.393e-9
-0.096, 1.401e-9
-0.095, 1.407e-9
-0.094, 1.413e-9
-0.093, 1.418e-9
-0.092, 1.424e-9
-0.091, 1.430e-9
-0.090, 1.436e-9
-0.089, 1.441e-9
-0.088, 1.449e-9
-0.087, 1.455e-9
-0.086, 1.460e-9
-0.085, 1.467e-9
-0.084, 1.472e-9
-0.083, 1.478e-9
-0.082, 1.483e-9
-0.081, 1.488e-9
-0.080, 1.493e-9
-0.079, 1.498e-9
-0.078, 1.506e-9
-0.077, 1.509e-9
-0.076, 1.515e-9
-0.075, 1.521e-9
-0.074, 1.525e-9
-0.073, 1.531e-9
-0.072, 1.536e-9
-0.071, 1.542e-9
-0.070, 1.550e-9
-0.069, 1.556e-9
-0.068, 1.561e-9
-0.067, 1.565e-9
-0.066, 1.571e-9
-0.065, 1.577e-9
-0.064, 1.582e-9
-0.063, 1.588e-9
-0.062, 1.593e-9
-0.061, 1.599e-9
-0.060, 1.603e-9
-0.059, 1.609e-9
-0.058, 1.614e-9
-0.057, 1.620e-9
-0.056, 1.625e-9
-0.055, 1.630e-9
-0.054, 1.634e-9
-0.053, 1.641e-9
-0.052, 1.648e-9
-0.051, 1.652e-9
-0.050, 1.660e-9
-0.049, 1.666e-9
-0.048, 1.671e-9
-0.047, 1.677e-9
-0.046, 1.683e-9
-0.045, 1.690e-9
-0.044, 1.696e-9
-0.043, 1.701e-9
-0.042, 1.708e-9
-0.041, 1.713e-9
-0.040, 1.720e-9
-0.039, 1.726e-9
-0.038, 1.732e-9
-0.037, 1.737e-9
-0.036, 1.742e-9
-0.035, 1.747e-9
-0.034, 1.754e-9
-0.033, 1.759e-9
-0.032, 1.766e-9
-0.031, 1.772e-9
-0.030, 1.778e-9
-0.029, 1.782e-9
-0.028, 1.788e-9
-0.027, 1.793e-9
-0.026, 1.799e-9
-0.025, 1.804e-9
-0.024, 1.811e-9
-0.023, 1.817e-9
-0.022, 1.822e-9
-0.021, 1.829e-9
-0.020, 1.835e-9
-0.019, 1.842e-9
-0.018, 1.848e-9
-0.017, 1.854e-9
-0.016, 1.859e-9
-0.015, 1.863e-9
-0.014, 1.870e-9
-0.013, 1.876e-9
-0.012, 1.881e-9
-0.011, 1.887e-9
-0.010, 1.893e-9
-0.009, 1.899e-9
-0.008, 1.907e-9
-0.007, 1.912e-9
-0.006, 1.920e-9
-0.005, 1.926e-9
-0.004, 1.933e-9
-0.003, 1.939e-9
-0.002, 1.944e-9
-0.001, 1.950e-9
0.000, 1.952e-9
0.001, 1.957e-9
0.002, 1.965e-9
0.003, 1.971e-9
0.004, 1.977e-9
0.005, 1.984e-9
0.006, 1.989e-9
0.007, 1.995e-9
0.008, 2.001e-9
0.009, 2.007e-9
0.010, 2.012e-9
0.011, 2.019e-9
0.012, 2.027e-9
0.013, 2.031e-9
0.014, 2.035e-9
0.015, 2.042e-9
0.016, 2.048e-9
0.017, 2.054e-9
0.018, 2.061e-9
0.019, 2.068e-9
0.020, 2.073e-9
0.021, 2.079e-9
0.022, 2.084e-9
0.023, 2.091e-9
0.024, 2.097e-9
0.025, 2.102e-9
0.026, 2.107e-9
0.027, 2.114e-9
0.028, 2.119e-9
0.029, 2.124e-9
0.030, 2.130e-9
0.031, 2.137e-9
0.032, 2.142e-9
0.033, 2.150e-9
0.034, 2.157e-9
0.035, 2.164e-9
0.036, 2.171e-9
0.037, 2.177e-9
0.038, 2.184e-9
0.039, 2.190e-9
0.040, 2.196e-9
0.041, 2.203e-9
0.042, 2.209e-9
0.043, 2.215e-9
0.044, 2.221e-9
0.045, 2.227e-9
0.046, 2.234e-9
0.047, 2.240e-9
0.048, 2.245e-9
0.049, 2.250e-9
0.050, 2.256e-9
0.051, 2.263e-9
0.052, 2.268e-9
0.053, 2.275e-9
0.054, 2.283e-9
0.055, 2.289e-9
0.056, 2.297e-9
0.057, 2.303e-9
0.058, 2.307e-9
0.059, 2.315e-9
0.060, 2.322e-9
0.061, 2.328e-9
0.062, 2.335e-9
0.063, 2.342e-9
0.064, 2.350e-9
0.065, 2.357e-9
0.066, 2.362e-9
0.067, 2.368e-9
0.068, 2.374e-9
0.069, 2.383e-9
0.070, 2.391e-9
0.071, 2.398e-9
0.072, 2.404e-9
0.073, 2.410e-9
0.074, 2.417e-9
0.075, 2.424e-9
0.076, 2.430e-9
0.077, 2.436e-9
0.078, 2.445e-9
0.079, 2.452e-9
0.080, 2.459e-9
0.081, 2.466e-9
0.082, 2.472e-9
0.083, 2.479e-9
0.084, 2.488e-9
0.085, 2.495e-9
0.086, 2.502e-9
0.087, 2.509e-9
0.088, 2.517e-9
0.089, 2.525e-9
0.090, 2.532e-9
0.091, 2.539e-9
0.092, 2.546e-9
0.093, 2.553e-9
0.094, 2.562e-9
0.095, 2.568e-9
0.096, 2.577e-9
0.097, 2.586e-9
0.098, 2.594e-9
0.099, 2.602e-9
0.100, 2.611e-9
0.101, 2.622e-9
0.102, 2.635e-9
0.103, 2.656e-9
0.104, 2.674e-9
0.105, 2.694e-9
0.106, 2.718e-9
0.107, 2.748e-9
0.108, 2.781e-9
0.109, 2.827e-9
0.110, 2.880e-9
0.111, 2.942e-9
0.112, 3.020e-9
0.113, 3.113e-9
0.114, 3.213e-9
0.115, 3.327e-9
0.116, 3.472e-9
0.117, 3.645e-9
0.118, 3.797e-9
0.119, 3.955e-9
0.120, 4.102e-9
0.121, 4.221e-9
0.122, 4.325e-9
0.123, 4.409e-9
0.124, 4.490e-9
0.125, 4.531e-9
0.126, 4.527e-9
0.127, 4.473e-9
0.128, 4.398e-9
0.129, 4.342e-9
0.130, 4.277e-9
0.131, 4.198e-9
0.132, 4.107e-9
0.133, 4.037e-9
0.134, 3.950e-9
0.135, 3.867e-9
0.136, 3.784e-9
0.137, 3.694e-9
0.138, 3.597e-9
0.139, 3.517e-9
0.140, 3.437e-9
0.141, 3.356e-9
0.142, 3.288e-9
0.143, 3.229e-9
0.144, 3.169e-9
0.145, 3.122e-9
0.146, 3.082e-9
0.147, 3.049e-9
0.148, 3.022e-9
0.149, 2.998e-9
0.150, 2.982e-9
0.151, 2.970e-9
0.152, 2.957e-9
0.153, 2.948e-9
0.154, 2.942e-9
0.155, 2.935e-9
0.156, 2.930e-9
0.157, 2.927e-9
0.158, 2.925e-9
0.159, 2.926e-9
0.160, 2.924e-9
0.161, 2.923e-9
0.162, 2.925e-9
0.163, 2.926e-9
0.164, 2.927e-9
0.165, 2.927e-9
0.166, 2.929e-9
0.167, 2.929e-9
0.168, 2.930e-9
0.169, 2.933e-9
0.170, 2.935e-9
0.171, 2.939e-9
0.172, 2.940e-9
0.173, 2.942e-9
0.174, 2.945e-9
0.175, 2.948e-9
0.176, 2.951e-9
0.177, 2.953e-9
0.178, 2.957e-9
0.179, 2.959e-9
0.180, 2.961e-9
0.181, 2.965e-9
0.182, 2.968e-9
0.183, 2.972e-9
0.184, 2.975e-9
0.185, 2.978e-9
0.186, 2.982e-9
0.187, 2.984e-9
0.188, 2.987e-9
0.189, 2.988e-9
0.190, 2.991e-9
0.191, 2.993e-9
0.192, 2.994e-9
0.193, 2.998e-9
0.194, 3.001e-9
0.195, 3.005e-9
0.196, 3.008e-9
0.197, 3.011e-9
0.198, 3.014e-9
0.199, 3.017e-9
0.200, 3.020e-9
0.201, 3.023e-9
0.202, 3.025e-9
0.203, 3.029e-9
0.204, 3.032e-9
0.205, 3.031e-9
0.206, 3.033e-9
0.207, 3.037e-9
0.208, 3.040e-9
0.209, 3.043e-9
0.210, 3.045e-9
0.211, 3.051e-9
0.212, 3.053e-9
0.213, 3.055e-9
0.214, 3.058e-9
0.215, 3.060e-9
0.216, 3.063e-9
0.217, 3.066e-9
0.218, 3.068e-9
0.219, 3.071e-9
0.220, 3.073e-9
0.221, 3.076e-9
0.222, 3.077e-9
0.223, 3.080e-9
0.224, 3.083e-9
0.225, 3.085e-9
0.226, 3.088e-9
0.227, 3.091e-9
0.228, 3.093e-9
0.229, 3.096e-9
0.230, 3.100e-9
0.231, 3.101e-9
0.232, 3.102e-9
0.233, 3.106e-9
0.234, 3.108e-9
0.235, 3.112e-9
0.236, 3.114e-9
0.237, 3.115e-9
0.238, 3.120e-9
0.239, 3.125e-9
0.240, 3.128e-9
0.241, 3.130e-9
0.242, 3.132e-9
0.243, 3.134e-9
0.244, 3.136e-9
0.245, 3.141e-9
0.246, 3.144e-9
0.247, 3.145e-9
0.248, 3.149e-9
0.249, 3.153e-9
0.250, 3.156e-9
0.251, 3.158e-9
0.252, 3.161e-9
0.253, 3.165e-9
0.254, 3.168e-9
0.255, 3.171e-9
0.256, 3.173e-9
0.257, 3.176e-9
0.258, 3.179e-9
0.259, 3.182e-9
0.260, 3.184e-9
0.261, 3.187e-9
0.262, 3.190e-9
0.263, 3.193e-9
0.264, 3.198e-9
0.265, 3.201e-9
0.266, 3.203e-9
0.267, 3.206e-9
0.268, 3.208e-9
0.269, 3.211e-9
0.270, 3.214e-9
0.271, 3.216e-9
0.272, 3.220e-9
0.273, 3.224e-9
0.274, 3.227e-9
0.275, 3.232e-9
0.276, 3.234e-9
0.277, 3.237e-9
0.278, 3.241e-9
0.279, 3.243e-9
0.280, 3.247e-9
0.281, 3.250e-9
0.282, 3.252e-9
0.283, 3.257e-9
0.284, 3.260e-9
0.285, 3.261e-9
0.286, 3.265e-9
0.287, 3.269e-9
0.288, 3.272e-9
0.289, 3.275e-9
0.290, 3.278e-9
0.291, 3.280e-9
0.292, 3.283e-9
0.293, 3.286e-9
0.294, 3.290e-9
0.295, 3.293e-9
0.296, 3.296e-9
0.297, 3.298e-9
0.298, 3.302e-9
0.299, 3.307e-9
0.300, 3.309e-9
0.301, 3.312e-9
0.302, 3.317e-9
0.303, 3.322e-9
0.304, 3.324e-9
0.305, 3.327e-9
0.306, 3.329e-9
0.307, 3.337e-9
0.308, 3.342e-9
0.309, 3.343e-9
0.310, 3.344e-9
0.311, 3.346e-9
0.312, 3.352e-9
0.313, 3.356e-9
0.314, 3.359e-9
0.315, 3.364e-9
0.316, 3.368e-9
0.317, 3.371e-9
0.318, 3.376e-9
0.319, 3.379e-9
0.320, 3.382e-9
0.321, 3.387e-9
0.322, 3.392e-9
0.323, 3.396e-9
0.324, 3.399e-9
0.325, 3.403e-9
0.326, 3.408e-9
0.327, 3.411e-9
0.328, 3.416e-9
0.329, 3.421e-9
0.330, 3.424e-9
0.331, 3.430e-9
0.332, 3.434e-9
0.333, 3.438e-9
0.334, 3.441e-9
0.335, 3.445e-9
0.336, 3.448e-9
0.337, 3.453e-9
0.338, 3.459e-9
0.339, 3.463e-9
0.340, 3.466e-9
0.341, 3.472e-9
0.342, 3.475e-9
0.343, 3.478e-9
0.344, 3.483e-9
0.345, 3.488e-9
0.346, 3.491e-9
0.347, 3.497e-9
0.348, 3.501e-9
0.349, 3.506e-9
0.350, 3.510e-9
0.351, 3.515e-9
0.352, 3.520e-9
0.353, 3.524e-9
0.354, 3.530e-9
0.355, 3.534e-9
0.356, 3.538e-9
0.357, 3.542e-9
0.358, 3.545e-9
0.359, 3.549e-9
0.360, 3.555e-9
0.361, 3.558e-9
0.362, 3.560e-9
0.363, 3.565e-9
0.364, 3.570e-9
0.365, 3.575e-9
0.366, 3.578e-9
0.367, 3.583e-9
0.368, 3.588e-9
0.369, 3.593e-9
0.370, 3.597e-9
0.371, 3.602e-9
0.372, 3.608e-9
0.373, 3.613e-9
0.374, 3.618e-9
0.375, 3.624e-9
0.376, 3.630e-9
0.377, 3.633e-9
0.378, 3.637e-9
0.379, 3.643e-9
0.380, 3.651e-9
0.381, 3.656e-9
0.382, 3.662e-9
0.383, 3.667e-9
0.384, 3.673e-9
0.385, 3.679e-9
0.386, 3.683e-9
0.387, 3.688e-9
0.388, 3.693e-9
0.389, 3.699e-9
0.390, 3.703e-9
0.391, 3.709e-9
0.392, 3.716e-9
0.393, 3.722e-9
0.394, 3.726e-9
0.395, 3.732e-9
0.396, 3.738e-9
0.397, 3.743e-9
0.398, 3.748e-9
0.399, 3.753e-9
0.400, 3.758e-9
0.401, 3.764e-9
0.402, 3.769e-9
0.403, 3.774e-9
0.404, 3.779e-9
0.405, 3.784e-9
0.406, 3.789e-9
0.407, 3.793e-9
0.408, 3.799e-9
0.409, 3.804e-9
0.410, 3.803e-9
0.411, 3.809e-9
0.412, 3.816e-9
0.413, 3.822e-9
0.414, 3.829e-9
0.415, 3.834e-9
0.416, 3.840e-9
0.417, 3.844e-9
0.418, 3.850e-9
0.419, 3.857e-9
0.420, 3.862e-9
0.421, 3.869e-9
0.422, 3.877e-9
0.423, 3.882e-9
0.424, 3.887e-9
0.425, 3.893e-9
0.426, 3.899e-9
0.427, 3.907e-9
0.428, 3.913e-9
0.429, 3.919e-9
0.430, 3.925e-9
0.431, 3.930e-9
0.432, 3.934e-9
0.433, 3.940e-9
0.434, 3.947e-9
0.435, 3.952e-9
0.436, 3.959e-9
0.437, 3.965e-9
0.438, 3.973e-9
0.439, 3.978e-9
0.440, 3.985e-9
0.441, 3.991e-9
0.442, 3.998e-9
0.443, 4.004e-9
0.444, 4.010e-9
0.445, 4.016e-9
0.446, 4.022e-9
0.447, 4.029e-9
0.448, 4.035e-9
0.449, 4.039e-9
0.450, 4.045e-9
0.451, 4.052e-9
0.452, 4.061e-9
0.453, 4.063e-9
0.454, 4.071e-9
0.455, 4.074e-9
0.456, 4.081e-9
0.457, 4.088e-9
0.458, 4.095e-9
0.459, 4.101e-9
0.460, 4.109e-9
0.461, 4.116e-9
0.462, 4.123e-9
0.463, 4.129e-9
0.464, 4.136e-9
0.465, 4.142e-9
0.466, 4.150e-9
0.467, 4.158e-9
0.468, 4.165e-9
0.469, 4.172e-9
0.470, 4.180e-9
0.471, 4.188e-9
0.472, 4.196e-9
0.473, 4.202e-9
0.474, 4.207e-9
0.475, 4.214e-9
0.476, 4.221e-9
0.477, 4.228e-9
0.478, 4.236e-9
0.479, 4.244e-9
0.480, 4.250e-9
0.481, 4.256e-9
0.482, 4.263e-9
0.483, 4.269e-9
0.484, 4.275e-9
0.485, 4.283e-9
0.486, 4.289e-9
0.487, 4.297e-9
0.488, 4.304e-9
0.489, 4.309e-9
0.490, 4.315e-9
0.491, 4.322e-9
0.492, 4.330e-9
0.493, 4.337e-9
0.494, 4.347e-9
0.495, 4.355e-9
0.496, 4.361e-9
0.497, 4.368e-9
0.498, 4.376e-9
0.499, 4.385e-9
0.500, 4.358e-9
0.499, 4.210e-9
0.498, 4.089e-9
0.497, 4.008e-9
0.496, 3.937e-9
0.495, 3.874e-9
0.494, 3.816e-9
0.493, 3.765e-9
0.492, 3.714e-9
0.491, 3.664e-9
0.490, 3.613e-9
0.489, 3.569e-9
0.488, 3.530e-9
0.487, 3.491e-9
0.486, 3.452e-9
0.485, 3.412e-9
0.484, 3.374e-9
0.483, 3.339e-9
0.482, 3.306e-9
0.481, 3.274e-9
0.480, 3.242e-9
0.479, 3.209e-9
0.478, 3.175e-9
0.477, 3.140e-9
0.476, 3.108e-9
0.475, 3.080e-9
0.474, 3.054e-9
0.473, 3.028e-9
0.472, 3.000e-9
0.471, 2.972e-9
0.470, 2.947e-9
0.469, 2.921e-9
0.468, 2.896e-9
0.467, 2.870e-9
0.466, 2.846e-9
0.465, 2.824e-9
0.464, 2.802e-9
0.463, 2.779e-9
0.462, 2.756e-9
0.461, 2.733e-9
0.460, 2.711e-9
0.459, 2.688e-9
0.458, 2.663e-9
0.457, 2.641e-9
0.456, 2.618e-9
0.455, 2.598e-9
0.454, 2.580e-9
0.453, 2.560e-9
0.452, 2.541e-9
0.451, 2.523e-9
0.450, 2.503e-9
0.449, 2.484e-9
0.448, 2.466e-9
0.447, 2.447e-9
0.446, 2.429e-9
0.445, 2.409e-9
0.444, 2.390e-9
0.443, 2.373e-9
0.442, 2.354e-9
0.441, 2.337e-9
0.440, 2.319e-9
0.439, 2.301e-9
0.438, 2.283e-9
0.437, 2.266e-9
0.436, 2.251e-9
0.435, 2.235e-9
0.434, 2.218e-9
0.433, 2.202e-9
0.432, 2.186e-9
0.431, 2.168e-9
0.430, 2.151e-9
0.429, 2.135e-9
0.428, 2.119e-9
0.427, 2.105e-9
0.426, 2.092e-9
0.425, 2.078e-9
0.424, 2.064e-9
0.423, 2.051e-9
0.422, 2.037e-9
0.421, 2.022e-9
0.420, 2.007e-9
0.419, 1.992e-9
0.418, 1.979e-9
0.417, 1.965e-9
0.416, 1.951e-9
0.415, 1.937e-9
0.414, 1.922e-9
0.413, 1.907e-9
0.412, 1.893e-9
0.411, 1.878e-9
0.410, 1.867e-9
0.409, 1.859e-9
0.408, 1.842e-9
0.407, 1.828e-9
0.406, 1.813e-9
0.405, 1.799e-9
0.404, 1.786e-9
0.403, 1.772e-9
0.402, 1.760e-9
0.401, 1.748e-9
0.400, 1.736e-9
0.399, 1.723e-9
0.398, 1.711e-9
0.397, 1.698e-9
0.396, 1.686e-9
0.395, 1.672e-9
0.394, 1.658e-9
0.393, 1.646e-9
0.392, 1.633e-9
0.391, 1.622e-9
0.390, 1.611e-9
0.389, 1.600e-9
0.388, 1.588e-9
0.387, 1.577e-9
0.386, 1.565e-9
0.385, 1.553e-9
0.384, 1.542e-9
0.383, 1.530e-9
0.382, 1.519e-9
0.381, 1.507e-9
0.380, 1.496e-9
0.379, 1.484e-9
0.378, 1.473e-9
0.377, 1.462e-9
0.376, 1.451e-9
0.375, 1.438e-9
0.374, 1.427e-9
0.373, 1.415e-9
0.372, 1.404e-9
0.371, 1.394e-9
0.370, 1.383e-9
0.369, 1.371e-9
0.368, 1.359e-9
0.367, 1.348e-9
0.366, 1.337e-9
0.365, 1.326e-9
0.364, 1.316e-9
0.363, 1.304e-9
0.362, 1.294e-9
0.361, 1.285e-9
0.360, 1.273e-9
0.359, 1.264e-9
0.358, 1.254e-9
0.357, 1.243e-9
0.356, 1.233e-9
0.355, 1.224e-9
0.354, 1.213e-9
0.353, 1.202e-9
0.352, 1.191e-9
0.351, 1.179e-9
0.350, 1.168e-9
0.349, 1.158e-9
0.348, 1.148e-9
0.347, 1.139e-9
0.346, 1.129e-9
0.345, 1.121e-9
0.344, 1.111e-9
0.343, 1.102e-9
0.342, 1.094e-9
0.341, 1.084e-9
0.340, 1.074e-9
0.339, 1.064e-9
0.338, 1.054e-9
0.337, 1.045e-9
0.336, 1.036e-9
0.335, 1.026e-9
0.334, 1.018e-9
0.333, 1.007e-9
0.332, 9.985e-10
0.331, 9.889e-10
0.330, 9.804e-10
0.329, 9.728e-10
0.328, 9.624e-10
0.327, 9.527e-10
0.326, 9.422e-10
0.325, 9.329e-10
0.324, 9.228e-10
0.323, 9.132e-10
0.322, 9.036e-10
0.321, 8.948e-10
0.320, 8.858e-10
0.319, 8.765e-10
0.318, 8.665e-10
0.317, 8.583e-10
0.316, 8.493e-10
0.315, 8.402e-10
0.314, 8.304e-10
0.313, 8.209e-10
0.312, 8.117e-10
0.311, 8.024e-10
0.310, 7.934e-10
0.309, 7.855e-10
0.308, 7.765e-10
0.307, 7.650e-10
0.306, 7.558e-10
0.305, 7.482e-10
0.304, 7.406e-10
0.303, 7.324e-10
0.302, 7.240e-10
0.301, 7.152e-10
0.300, 7.060e-10
0.299, 6.977e-10
0.298, 6.888e-10
0.297, 6.786e-10
0.296, 6.691e-10
0.295, 6.598e-10
0.294, 6.527e-10
0.293, 6.449e-10
0.292, 6.369e-10
0.291, 6.291e-10
0.290, 6.209e-10
0.289, 6.127e-10
0.288, 6.045e-10
0.287, 5.965e-10
0.286, 5.883e-10
0.285, 5.794e-10
0.284, 5.709e-10
0.283, 5.618e-10
0.282, 5.537e-10
0.281, 5.467e-10
0.280, 5.380e-10
0.279, 5.305e-10
0.278, 5.214e-10
0.277, 5.116e-10
0.276, 5.028e-10
0.275, 4.942e-10
0.274, 4.848e-10
0.273, 4.766e-10
0.272, 4.662e-10
0.271, 4.569e-10
0.270, 4.484e-10
0.269, 4.382e-10
0.268, 4.303e-10
0.267, 4.222e-10
0.266, 4.132e-10
0.265, 4.063e-10
0.264, 3.987e-10
0.263, 3.913e-10
0.262, 3.834e-10
0.261, 3.764e-10
0.260, 3.690e-10
0.259, 3.607e-10
0.258, 3.539e-10
0.257, 3.455e-10
0.256, 3.387e-10
0.255, 3.313e-10
0.254, 3.217e-10
0.253, 3.142e-10
0.252, 3.075e-10
0.251, 2.997e-10
0.250, 2.924e-10
0.249, 2.832e-10
0.248, 2.761e-10
0.247, 2.687e-10
0.246, 2.616e-10
0.245, 2.528e-10
0.244, 2.442e-10
0.243, 2.357e-10
0.242, 2.270e-10
0.241, 2.197e-10
0.240, 2.102e-10
0.239, 2.016e-10
0.238, 1.931e-10
0.237, 1.855e-10
0.236, 1.771e-10
0.235, 1.709e-10
0.234, 1.638e-10
0.233, 1.570e-10
0.232, 1.498e-10
0.231, 1.434e-10
0.230, 1.373e-10
0.229, 1.297e-10
0.228, 1.218e-10
0.227, 1.143e-10
0.226, 1.067e-10
0.225, 9.869e-11
0.224, 9.148e-11
0.223, 8.280e-11
0.222, 7.510e-11
0.221, 6.847e-11
0.220, 6.126e-11
0.219, 5.297e-11
0.218, 4.625e-11
0.217, 3.884e-11
0.216, 3.114e-11
0.215, 2.334e-11
0.214, 1.700e-11
0.213, 8.617e-12
0.212, 4.289e-13
0.211, -9.514e-12
0.210, -1.946e-11
0.209, -2.677e-11
0.208, -3.437e-11
0.207, -4.334e-11
0.206, -5.172e-11
0.205, -5.884e-11
0.204, -6.488e-11
0.203, -7.444e-11
0.202, -8.175e-11
0.201, -8.838e-11
0.200, -9.608e-11
0.199, -1.030e-10
0.198, -1.113e-10
0.197, -1.199e-10
0.196, -1.276e-10
0.195, -1.340e-10
0.194, -1.411e-10
0.193, -1.487e-10
0.192, -1.568e-10
0.191, -1.644e-10
0.190, -1.729e-10
0.189, -1.816e-10
0.188, -1.887e-10
0.187, -1.972e-10
0.186, -2.033e-10
0.185, -2.124e-10
0.184, -2.200e-10
0.183, -2.278e-10
0.182, -2.360e-10
0.181, -2.453e-10
0.180, -2.545e-10
0.179, -2.637e-10
0.178, -2.734e-10
0.177, -2.823e-10
0.176, -2.906e-10
0.175, -2.984e-10
0.174, -3.078e-10
0.173, -3.162e-10
0.172, -3.237e-10
0.171, -3.314e-10
0.170, -3.371e-10
0.169, -3.444e-10
0.168, -3.523e-10
0.167, -3.603e-10
0.166, -3.658e-10
0.165, -3.758e-10
0.164, -3.836e-10
0.163, -3.921e-10
0.162, -4.007e-10
0.161, -4.089e-10
0.160, -4.167e-10
0.159, -4.256e-10
0.158, -4.338e-10
0.157, -4.424e-10
0.156, -4.508e-10
0.155, -4.597e-10
0.154, -4.684e-10
0.153, -4.759e-10
0.152, -4.845e-10
0.151, -4.946e-10
0.150, -5.034e-10
0.149, -5.129e-10
0.148, -5.240e-10
0.147, -5.340e-10
0.146, -5.443e-10
0.145, -5.529e-10
0.144, -5.611e-10
0.143, -5.703e-10
0.142, -5.790e-10
0.141, -5.870e-10
0.140, -5.954e-10
0.139, -6.041e-10
0.138, -6.126e-10
0.137, -6.208e-10
0.136, -6.312e-10
0.135, -6.401e-10
0.134, -6.489e-10
0.133, -6.593e-10
0.132, -6.676e-10
0.131, -6.759e-10
0.130, -6.851e-10
0.129, -6.941e-10
0.128, -7.032e-10
0.127, -7.121e-10
0.126, -7.224e-10
0.125, -7.311e-10
0.124, -7.401e-10
0.123, -7.530e-10
0.122, -7.629e-10
0.121, -7.725e-10
0.120, -7.823e-10
0.119, -7.922e-10
0.118, -8.013e-10
0.117, -8.101e-10
0.116, -8.187e-10
0.115, -8.258e-10
0.114, -8.364e-10
0.113, -8.451e-10
0.112, -8.531e-10
0.111, -8.635e-10
0.110, -8.725e-10
0.109, -8.817e-10
0.108, -8.920e-10
0.107, -9.013e-10
0.106, -9.110e-10
0.105, -9.205e-10
0.104, -9.314e-10
0.103, -9.422e-10
0.102, -9.568e-10
0.101, -9.654e-10
0.100, -9.745e-10
0.099, -9.849e-10
0.098, -9.959e-10
0.097, -1.007e-9
0.096, -1.019e-9
0.095, -1.027e-9
0.094, -1.040e-9
0.093, -1.050e-9
0.092, -1.058e-9
0.091, -1.068e-9
0.090, -1.078e-9
0.089, -1.088e-9
0.088, -1.097e-9
0.087, -1.106e-9
0.086, -1.116e-9
0.085, -1.126e-9
0.084, -1.138e-9
0.083, -1.148e-9
0.082, -1.159e-9
0.081, -1.170e-9
0.080, -1.180e-9
0.079, -1.190e-9
0.078, -1.200e-9
0.077, -1.211e-9
0.076, -1.221e-9
0.075, -1.232e-9
0.074, -1.244e-9
0.073, -1.255e-9
0.072, -1.267e-9
0.071, -1.277e-9
0.070, -1.287e-9
0.069, -1.299e-9
0.068, -1.307e-9
0.067, -1.316e-9
0.066, -1.326e-9
0.065, -1.334e-9
0.064, -1.343e-9
0.063, -1.354e-9
0.062, -1.363e-9
0.061, -1.374e-9
0.060, -1.385e-9
0.059, -1.396e-9
0.058, -1.407e-9
0.057, -1.416e-9
0.056, -1.427e-9
0.055, -1.436e-9
0.054, -1.447e-9
0.053, -1.457e-9
0.052, -1.466e-9
0.051, -1.477e-9
0.050, -1.488e-9
0.049, -1.499e-9
0.048, -1.510e-9
0.047, -1.521e-9
0.046, -1.531e-9
0.045, -1.541e-9
0.044, -1.553e-9
0.043, -1.562e-9
0.042, -1.572e-9
0.041, -1.580e-9
0.040, -1.588e-9
0.039, -1.598e-9
0.038, -1.607e-9
0.037, -1.616e-9
0.036, -1.626e-9
0.035, -1.636e-9
0.034, -1.645e-9
0.033, -1.654e-9
0.032, -1.661e-9
0.031, -1.672e-9
0.030, -1.681e-9
0.029, -1.691e-9
0.028, -1.699e-9
0.027, -1.709e-9
0.026, -1.718e-9
0.025, -1.727e-9
0.024, -1.738e-9
0.023, -1.747e-9
0.022, -1.756e-9
0.021, -1.766e-9
0.020, -1.774e-9
0.019, -1.783e-9
0.018, -1.790e-9
0.017, -1.799e-9
0.016, -1.808e-9
0.015, -1.816e-9
0.014, -1.823e-9
0.013, -1.831e-9
0.012, -1.840e-9
0.011, -1.849e-9
0.010, -1.859e-9
0.009, -1.866e-9
0.008, -1.876e-9
0.007, -1.884e-9
0.006, -1.894e-9
0.005, -1.902e-9
0.004, -1.909e-9
0.003, -1.917e-9
0.002, -1.925e-9
0.001, -1.933e-9
-0.000, -1.936e-9
-0.001, -1.942e-9
-0.002, -1.951e-9
-0.003, -1.961e-9
-0.004, -1.969e-9
-0.005, -1.978e-9
-0.006, -1.985e-9
-0.007, -1.995e-9
-0.008, -2.002e-9
-0.009, -2.010e-9
-0.010, -2.017e-9
-0.011, -2.025e-9
-0.012, -2.032e-9
-0.013, -2.038e-9
-0.014, -2.046e-9
-0.015, -2.052e-9
-0.016, -2.059e-9
-0.017, -2.067e-9
-0.018, -2.075e-9
-0.019, -2.084e-9
-0.020, -2.094e-9
-0.021, -2.103e-9
-0.022, -2.111e-9
-0.023, -2.118e-9
-0.024, -2.127e-9
-0.025, -2.136e-9
-0.026, -2.144e-9
-0.027, -2.155e-9
-0.028, -2.166e-9
-0.029, -2.180e-9
-0.030, -2.194e-9
-0.031, -2.212e-9
-0.032, -2.224e-9
-0.033, -2.240e-9
-0.034, -2.255e-9
-0.035, -2.267e-9
-0.036, -2.280e-9
-0.037, -2.294e-9
-0.038, -2.309e-9
-0.039, -2.327e-9
-0.040, -2.347e-9
-0.041, -2.362e-9
-0.042, -2.377e-9
-0.043, -2.390e-9
-0.044, -2.408e-9
-0.045, -2.427e-9
-0.046, -2.443e-9
-0.047, -2.456e-9
-0.048, -2.471e-9
-0.049, -2.498e-9
-0.050, -2.515e-9
-0.051, -2.530e-9
-0.052, -2.543e-9
-0.053, -2.552e-9
-0.054, -2.567e-9
-0.055, -2.582e-9
-0.056, -2.600e-9
-0.057, -2.609e-9
-0.058, -2.627e-9
-0.059, -2.634e-9
-0.060, -2.644e-9
-0.061, -2.636e-9
-0.062, -2.630e-9
-0.063, -2.624e-9
-0.064, -2.605e-9
-0.065, -2.602e-9
-0.066, -2.598e-9
-0.067, -2.584e-9
-0.068, -2.579e-9
-0.069, -2.573e-9
-0.070, -2.575e-9
-0.071, -2.576e-9
-0.072, -2.553e-9
-0.073, -2.537e-9
-0.074, -2.528e-9
-0.075, -2.508e-9
-0.076, -2.495e-9
-0.077, -2.481e-9
-0.078, -2.472e-9
-0.079, -2.472e-9
-0.080, -2.472e-9
-0.081, -2.468e-9
-0.082, -2.461e-9
-0.083, -2.448e-9
-0.084, -2.442e-9
-0.085, -2.449e-9
-0.086, -2.449e-9
-0.087, -2.452e-9
-0.088, -2.465e-9
-0.089, -2.464e-9
-0.090, -2.453e-9
-0.091, -2.445e-9
-0.092, -2.446e-9
-0.093, -2.443e-9
-0.094, -2.448e-9
-0.095, -2.445e-9
-0.096, -2.442e-9
-0.097, -2.447e-9
-0.098, -2.458e-9
-0.099, -2.450e-9
-0.100, -2.446e-9
-0.101, -2.444e-9
-0.102, -2.456e-9
-0.103, -2.473e-9
-0.104, -2.468e-9
-0.105, -2.465e-9
-0.106, -2.468e-9
-0.107, -2.476e-9
-0.108, -2.479e-9
-0.109, -2.485e-9
-0.110, -2.480e-9
-0.111, -2.482e-9
-0.112, -2.479e-9
-0.113, -2.486e-9
-0.114, -2.493e-9
-0.115, -2.494e-9
-0.116, -2.489e-9
-0.117, -2.490e-9
-0.118, -2.493e-9
-0.119, -2.504e-9
-0.120, -2.511e-9
-0.121, -2.511e-9
-0.122, -2.510e-9
-0.123, -2.508e-9
-0.124, -2.511e-9
-0.125, -2.513e-9
-0.126, -2.515e-9
-0.127, -2.516e-9
-0.128, -2.519e-9
-0.129, -2.520e-9
-0.130, -2.526e-9
-0.131, -2.525e-9
-0.132, -2.528e-9
-0.133, -2.532e-9
-0.134, -2.536e-9
-0.135, -2.552e-9
-0.136, -2.544e-9
-0.137, -2.541e-9
-0.138, -2.542e-9
-0.139, -2.546e-9
-0.140, -2.554e-9
-0.141, -2.566e-9
-0.142, -2.557e-9
-0.143, -2.559e-9
-0.144, -2.562e-9
-0.145, -2.565e-9
-0.146, -2.572e-9
-0.147, -2.574e-9
-0.148, -2.580e-9
-0.149, -2.585e-9
-0.150, -2.586e-9
-0.151, -2.586e-9
-0.152, -2.585e-9
-0.153, -2.591e-9
-0.154, -2.589e-9
-0.155, -2.592e-9
-0.156, -2.597e-9
-0.157, -2.599e-9
-0.158, -2.613e-9
-0.159, -2.630e-9
-0.160, -2.616e-9
-0.161, -2.613e-9
-0.162, -2.615e-9
-0.163, -2.620e-9
-0.164, -2.625e-9
-0.165, -2.628e-9
-0.166, -2.625e-9
-0.167, -2.624e-9
-0.168, -2.628e-9
-0.169, -2.632e-9
-0.170, -2.635e-9
-0.171, -2.639e-9
-0.172, -2.642e-9
-0.173, -2.642e-9
-0.174, -2.646e-9
-0.175, -2.648e-9
-0.176, -2.651e-9
-0.177, -2.653e-9
-0.178, -2.656e-9
-0.179, -2.659e-9
-0.180, -2.662e-9
-0.181, -2.667e-9
-0.182, -2.670e-9
-0.183, -2.670e-9
-0.184, -2.682e-9
-0.185, -2.681e-9
-0.186, -2.684e-9
-0.187, -2.688e-9
-0.188, -2.692e-9
-0.189, -2.690e-9
-0.190, -2.691e-9
-0.191, -2.694e-9
-0.192, -2.695e-9
-0.193, -2.699e-9
-0.194, -2.702e-9
-0.195, -2.707e-9
-0.196, -2.712e-9
-0.197, -2.718e-9
-0.198, -2.718e-9
-0.199, -2.719e-9
-0.200, -2.722e-9
-0.201, -2.726e-9
-0.202, -2.728e-9
-0.203, -2.730e-9
-0.204, -2.734e-9
-0.205, -2.733e-9
-0.206, -2.736e-9
-0.207, -2.740e-9
-0.208, -2.743e-9
-0.209, -2.746e-9
-0.210, -2.749e-9
-0.211, -2.752e-9
-0.212, -2.756e-9
-0.213, -2.758e-9
-0.214, -2.761e-9
-0.215, -2.764e-9
-0.216, -2.765e-9
-0.217, -2.769e-9
-0.218, -2.772e-9
-0.219, -2.776e-9
-0.220, -2.777e-9
-0.221, -2.780e-9
-0.222, -2.783e-9
-0.223, -2.786e-9
-0.224, -2.788e-9
-0.225, -2.791e-9
-0.226, -2.794e-9
-0.227, -2.798e-9
-0.228, -2.799e-9
-0.229, -2.802e-9
-0.230, -2.807e-9
-0.231, -2.811e-9
-0.232, -2.813e-9
-0.233, -2.815e-9
-0.234, -2.817e-9
-0.235, -2.821e-9
-0.236, -2.823e-9
-0.237, -2.826e-9
-0.238, -2.829e-9
-0.239, -2.832e-9
-0.240, -2.836e-9
-0.241, -2.841e-9
-0.242, -2.844e-9
-0.243, -2.846e-9
-0.244, -2.848e-9
-0.245, -2.852e-9
-0.246, -2.854e-9
-0.247, -2.855e-9
-0.248, -2.858e-9
-0.249, -2.861e-9
-0.250, -2.865e-9
-0.251, -2.868e-9
-0.252, -2.872e-9
-0.253, -2.875e-9
-0.254, -2.879e-9
-0.255, -2.881e-9
-0.256, -2.882e-9
-0.257, -2.885e-9
-0.258, -2.887e-9
-0.259, -2.890e-9
-0.260, -2.893e-9
-0.261, -2.896e-9
-0.262, -2.899e-9
-0.263, -2.901e-9
-0.264, -2.903e-9
-0.265, -2.906e-9
-0.266, -2.909e-9
-0.267, -2.912e-9
-0.268, -2.915e-9
-0.269, -2.915e-9
-0.270, -2.917e-9
-0.271, -2.920e-9
-0.272, -2.922e-9
-0.273, -2.923e-9
-0.274, -2.925e-9
-0.275, -2.930e-9
-0.276, -2.933e-9
-0.277, -2.936e-9
-0.278, -2.937e-9
-0.279, -2.940e-9
-0.280, -2.944e-9
-0.281, -2.946e-9
-0.282, -2.948e-9
-0.283, -2.951e-9
-0.284, -2.954e-9
-0.285, -2.954e-9
-0.286, -2.959e-9
-0.287, -2.960e-9
-0.288, -2.961e-9
-0.289, -2.965e-9
-0.290, -2.968e-9
-0.291, -2.971e-9
-0.292, -2.973e-9
-0.293, -2.975e-9
-0.294, -2.979e-9
-0.295, -2.979e-9
-0.296, -2.981e-9
-0.297, -2.983e-9
-0.298, -2.987e-9
-0.299, -2.990e-9
-0.300, -2.992e-9
-0.301, -2.994e-9
-0.302, -2.996e-9
-0.303, -2.998e-9
-0.304, -3.000e-9
-0.305, -3.002e-9
-0.306, -3.004e-9
-0.307, -3.008e-9
-0.308, -3.014e-9
-0.309, -3.013e-9
-0.310, -3.014e-9
-0.311, -3.015e-9
-0.312, -3.018e-9
-0.313, -3.018e-9
-0.314, -3.020e-9
-0.315, -3.022e-9
-0.316, -3.025e-9
-0.317, -3.025e-9
-0.318, -3.028e-9
-0.319, -3.029e-9
-0.320, -3.031e-9
-0.321, -3.033e-9
-0.322, -3.036e-9
-0.323, -3.038e-9
-0.324, -3.039e-9
-0.325, -3.041e-9
-0.326, -3.043e-9
-0.327, -3.045e-9
-0.328, -3.048e-9
-0.329, -3.048e-9
-0.330, -3.049e-9
-0.331, -3.050e-9
-0.332, -3.052e-9
-0.333, -3.053e-9
-0.334, -3.056e-9
-0.335, -3.058e-9
-0.336, -3.061e-9
-0.337, -3.062e-9
-0.338, -3.063e-9
-0.339, -3.067e-9
-0.340, -3.069e-9
-0.341, -3.071e-9
-0.342, -3.074e-9
-0.343, -3.075e-9
-0.344, -3.076e-9
-0.345, -3.077e-9
-0.346, -3.079e-9
-0.347, -3.080e-9
-0.348, -3.081e-9
-0.349, -3.081e-9
-0.350, -3.085e-9
-0.351, -3.087e-9
-0.352, -3.088e-9
-0.353, -3.090e-9
-0.354, -3.091e-9
-0.355, -3.094e-9
-0.356, -3.095e-9
-0.357, -3.096e-9
-0.358, -3.099e-9
-0.359, -3.101e-9
-0.360, -3.102e-9
-0.361, -3.105e-9
-0.362, -3.105e-9
-0.363, -3.106e-9
-0.364, -3.108e-9
-0.365, -3.109e-9
-0.366, -3.112e-9
-0.367, -3.114e-9
-0.368, -3.114e-9
-0.369, -3.115e-9
-0.370, -3.117e-9
-0.371, -3.118e-9
-0.372, -3.119e-9
-0.373, -3.121e-9
-0.374, -3.124e-9
-0.375, -3.126e-9
-0.376, -3.128e-9
-0.377, -3.128e-9
-0.378, -3.130e-9
-0.379, -3.132e-9
-0.380, -3.134e-9
-0.381, -3.134e-9
-0.382, -3.135e-9
-0.383, -3.138e-9
-0.384, -3.139e-9
-0.385, -3.141e-9
-0.386, -3.143e-9
-0.387, -3.146e-9
-0.388, -3.147e-9
-0.389, -3.148e-9
-0.390, -3.150e-9
-0.391, -3.152e-9
-0.392, -3.152e-9
-0.393, -3.153e-9
-0.394, -3.154e-9
-0.395, -3.157e-9
-0.396, -3.158e-9
-0.397, -3.161e-9
-0.398, -3.164e-9
-0.399, -3.164e-9
-0.400, -3.166e-9
-0.401, -3.168e-9
-0.402, -3.169e-9
-0.403, -3.171e-9
-0.404, -3.173e-9
-0.405, -3.175e-9
-0.406, -3.177e-9
-0.407, -3.177e-9
-0.408, -3.181e-9
-0.409, -3.184e-9
-0.410, -3.184e-9
-0.411, -3.185e-9
-0.412, -3.187e-9
-0.413, -3.188e-9
-0.414, -3.190e-9
-0.415, -3.192e-9
-0.416, -3.193e-9
-0.417, -3.195e-9
-0.418, -3.197e-9
-0.419, -3.200e-9
-0.420, -3.202e-9
-0.421, -3.204e-9
-0.422, -3.205e-9
-0.423, -3.206e-9
-0.424, -3.209e-9
-0.425, -3.212e-9
-0.426, -3.215e-9
-0.427, -3.215e-9
-0.428, -3.218e-9
-0.429, -3.221e-9
-0.430, -3.222e-9
-0.431, -3.223e-9
-0.432, -3.224e-9
-0.433, -3.226e-9
-0.434, -3.229e-9
-0.435, -3.233e-9
-0.436, -3.233e-9
-0.437, -3.234e-9
-0.438, -3.236e-9
-0.439, -3.238e-9
-0.440, -3.240e-9
-0.441, -3.242e-9
-0.442, -3.244e-9
-0.443, -3.247e-9
-0.444, -3.249e-9
-0.445, -3.250e-9
-0.446, -3.253e-9
-0.447, -3.254e-9
-0.448, -3.254e-9
-0.449, -3.257e-9
-0.450, -3.259e-9
-0.451, -3.261e-9
-0.452, -3.262e-9
-0.453, -3.266e-9
-0.454, -3.269e-9
-0.455, -3.270e-9
-0.456, -3.272e-9
-0.457, -3.273e-9
-0.458, -3.275e-9
-0.459, -3.278e-9
-0.460, -3.280e-9
-0.461, -3.281e-9
-0.462, -3.284e-9
-0.463, -3.286e-9
-0.464, -3.289e-9
-0.465, -3.291e-9
-0.466, -3.293e-9
-0.467, -3.296e-9
-0.468, -3.298e-9
-0.469, -3.301e-9
-0.470, -3.303e-9
-0.471, -3.305e-9
-0.472, -3.307e-9
-0.473, -3.309e-9
-0.474, -3.312e-9
-0.475, -3.314e-9
-0.476, -3.317e-9
-0.477, -3.321e-9
-0.478, -3.323e-9
-0.479, -3.325e-9
-0.480, -3.331e-9
-0.481, -3.332e-9
-0.482, -3.334e-9
-0.483, -3.338e-9
-0.484, -3.339e-9
-0.485, -3.342e-9
-0.486, -3.343e-9
-0.487, -3.345e-9
-0.488, -3.349e-9
-0.489, -3.351e-9
-0.490, -3.354e-9
-0.491, -3.356e-9
-0.492, -3.359e-9
-0.493, -3.362e-9
-0.494, -3.363e-9
-0.495, -3.366e-9
-0.496, -3.368e-9
-0.497, -3.370e-9
-0.498, -3.374e-9
-0.499, -3.376e-9
