Nov. 20, 2024   15:55:30
Cyclic Voltammetry
File: +12 2319-1 fto cv_cells_dark_surface_8.bin
Data Source:  Experiment
Instrument Model:  CHI920C
Ref. Electrode: 
Header: 
Note: 

Init E (V) = -0.5
High E (V) = 0.5
Low E (V) = -0.5
Init P/N = P
Scan Rate (V/s) = 0.05
Segment = 2
Sample Interval (V) = 0.001
Quiet Time (sec) = 10
Sensitivity (A/V) = 1e-7

Results:

Channel 1:
Segment 1:
Ep = 0.121V
ip = 2.449e-9A
Ah = 5.235e-10C

Segment 2:

Potential/V, Current/A

-0.500, -1.294e-9
-0.499, -1.219e-9
-0.498, -1.165e-9
-0.497, -1.128e-9
-0.496, -1.098e-9
-0.495, -1.073e-9
-0.494, -1.050e-9
-0.493, -1.027e-9
-0.492, -1.006e-9
-0.491, -9.851e-10
-0.490, -9.668e-10
-0.489, -9.493e-10
-0.488, -9.332e-10
-0.487, -9.193e-10
-0.486, -9.064e-10
-0.485, -8.933e-10
-0.484, -8.793e-10
-0.483, -8.668e-10
-0.482, -8.562e-10
-0.481, -8.441e-10
-0.480, -8.323e-10
-0.479, -8.216e-10
-0.478, -8.117e-10
-0.477, -8.022e-10
-0.476, -7.924e-10
-0.475, -7.812e-10
-0.474, -7.715e-10
-0.473, -7.614e-10
-0.472, -7.493e-10
-0.471, -7.384e-10
-0.470, -7.287e-10
-0.469, -7.196e-10
-0.468, -7.106e-10
-0.467, -7.035e-10
-0.466, -6.942e-10
-0.465, -6.847e-10
-0.464, -6.764e-10
-0.463, -6.692e-10
-0.462, -6.596e-10
-0.461, -6.517e-10
-0.460, -6.430e-10
-0.459, -6.351e-10
-0.458, -6.280e-10
-0.457, -6.195e-10
-0.456, -6.105e-10
-0.455, -6.041e-10
-0.454, -5.955e-10
-0.453, -5.885e-10
-0.452, -5.820e-10
-0.451, -5.741e-10
-0.450, -5.676e-10
-0.449, -5.595e-10
-0.448, -5.526e-10
-0.447, -5.452e-10
-0.446, -5.366e-10
-0.445, -5.279e-10
-0.444, -5.208e-10
-0.443, -5.121e-10
-0.442, -5.041e-10
-0.441, -4.966e-10
-0.440, -4.877e-10
-0.439, -4.793e-10
-0.438, -4.738e-10
-0.437, -4.651e-10
-0.436, -4.584e-10
-0.435, -4.532e-10
-0.434, -4.455e-10
-0.433, -4.378e-10
-0.432, -4.316e-10
-0.431, -4.247e-10
-0.430, -4.177e-10
-0.429, -4.109e-10
-0.428, -4.044e-10
-0.427, -3.983e-10
-0.426, -3.897e-10
-0.425, -3.842e-10
-0.424, -3.779e-10
-0.423, -3.713e-10
-0.422, -3.653e-10
-0.421, -3.600e-10
-0.420, -3.534e-10
-0.419, -3.484e-10
-0.418, -3.419e-10
-0.417, -3.357e-10
-0.416, -3.303e-10
-0.415, -3.247e-10
-0.414, -3.187e-10
-0.413, -3.113e-10
-0.412, -3.069e-10
-0.411, -2.980e-10
-0.410, -2.918e-10
-0.409, -2.851e-10
-0.408, -2.773e-10
-0.407, -2.704e-10
-0.406, -2.641e-10
-0.405, -2.561e-10
-0.404, -2.487e-10
-0.403, -2.426e-10
-0.402, -2.359e-10
-0.401, -2.294e-10
-0.400, -2.250e-10
-0.399, -2.190e-10
-0.398, -2.132e-10
-0.397, -2.077e-10
-0.396, -2.019e-10
-0.395, -1.951e-10
-0.394, -1.886e-10
-0.393, -1.825e-10
-0.392, -1.754e-10
-0.391, -1.705e-10
-0.390, -1.640e-10
-0.389, -1.584e-10
-0.388, -1.520e-10
-0.387, -1.463e-10
-0.386, -1.396e-10
-0.385, -1.342e-10
-0.384, -1.285e-10
-0.383, -1.234e-10
-0.382, -1.181e-10
-0.381, -1.125e-10
-0.380, -1.065e-10
-0.379, -1.010e-10
-0.378, -9.423e-11
-0.377, -8.955e-11
-0.376, -8.506e-11
-0.375, -7.834e-11
-0.374, -7.317e-11
-0.373, -6.713e-11
-0.372, -6.245e-11
-0.371, -5.699e-11
-0.370, -5.046e-11
-0.369, -4.305e-11
-0.368, -3.808e-11
-0.367, -3.135e-11
-0.366, -2.472e-11
-0.365, -1.780e-11
-0.364, -9.807e-12
-0.363, -4.348e-12
-0.362, 8.189e-13
-0.361, 8.325e-12
-0.360, 1.593e-11
-0.359, 2.090e-11
-0.358, 2.587e-11
-0.357, 3.104e-11
-0.356, 3.698e-11
-0.355, 4.244e-11
-0.354, 4.858e-11
-0.353, 5.385e-11
-0.352, 6.009e-11
-0.351, 6.477e-11
-0.350, 7.052e-11
-0.349, 7.685e-11
-0.348, 8.270e-11
-0.347, 8.875e-11
-0.346, 9.489e-11
-0.345, 9.908e-11
-0.344, 1.041e-10
-0.343, 1.098e-10
-0.342, 1.152e-10
-0.341, 1.215e-10
-0.340, 1.264e-10
-0.339, 1.306e-10
-0.338, 1.367e-10
-0.337, 1.416e-10
-0.336, 1.456e-10
-0.335, 1.509e-10
-0.334, 1.558e-10
-0.333, 1.598e-10
-0.332, 1.649e-10
-0.331, 1.706e-10
-0.330, 1.758e-10
-0.329, 1.806e-10
-0.328, 1.861e-10
-0.327, 1.933e-10
-0.326, 2.001e-10
-0.325, 2.058e-10
-0.324, 2.120e-10
-0.323, 2.171e-10
-0.322, 2.237e-10
-0.321, 2.302e-10
-0.320, 2.360e-10
-0.319, 2.423e-10
-0.318, 2.482e-10
-0.317, 2.539e-10
-0.316, 2.590e-10
-0.315, 2.645e-10
-0.314, 2.708e-10
-0.313, 2.761e-10
-0.312, 2.816e-10
-0.311, 2.877e-10
-0.310, 2.919e-10
-0.309, 2.976e-10
-0.308, 3.035e-10
-0.307, 3.131e-10
-0.306, 3.180e-10
-0.305, 3.217e-10
-0.304, 3.283e-10
-0.303, 3.332e-10
-0.302, 3.379e-10
-0.301, 3.442e-10
-0.300, 3.488e-10
-0.299, 3.544e-10
-0.298, 3.592e-10
-0.297, 3.640e-10
-0.296, 3.699e-10
-0.295, 3.750e-10
-0.294, 3.788e-10
-0.293, 3.847e-10
-0.292, 3.901e-10
-0.291, 3.943e-10
-0.290, 4.004e-10
-0.289, 4.068e-10
-0.288, 4.124e-10
-0.287, 4.178e-10
-0.286, 4.224e-10
-0.285, 4.280e-10
-0.284, 4.362e-10
-0.283, 4.423e-10
-0.282, 4.468e-10
-0.281, 4.524e-10
-0.280, 4.600e-10
-0.279, 4.665e-10
-0.278, 4.741e-10
-0.277, 4.805e-10
-0.276, 4.875e-10
-0.275, 4.947e-10
-0.274, 5.015e-10
-0.273, 5.077e-10
-0.272, 5.125e-10
-0.271, 5.185e-10
-0.270, 5.251e-10
-0.269, 5.303e-10
-0.268, 5.374e-10
-0.267, 5.432e-10
-0.266, 5.487e-10
-0.265, 5.528e-10
-0.264, 5.594e-10
-0.263, 5.642e-10
-0.262, 5.690e-10
-0.261, 5.754e-10
-0.260, 5.812e-10
-0.259, 5.866e-10
-0.258, 5.943e-10
-0.257, 5.997e-10
-0.256, 6.043e-10
-0.255, 6.104e-10
-0.254, 6.161e-10
-0.253, 6.219e-10
-0.252, 6.263e-10
-0.251, 6.323e-10
-0.250, 6.385e-10
-0.249, 6.435e-10
-0.248, 6.485e-10
-0.247, 6.536e-10
-0.246, 6.589e-10
-0.245, 6.654e-10
-0.244, 6.702e-10
-0.243, 6.754e-10
-0.242, 6.825e-10
-0.241, 6.884e-10
-0.240, 6.951e-10
-0.239, 7.020e-10
-0.238, 7.075e-10
-0.237, 7.142e-10
-0.236, 7.204e-10
-0.235, 7.258e-10
-0.234, 7.317e-10
-0.233, 7.366e-10
-0.232, 7.437e-10
-0.231, 7.488e-10
-0.230, 7.531e-10
-0.229, 7.598e-10
-0.228, 7.664e-10
-0.227, 7.703e-10
-0.226, 7.762e-10
-0.225, 7.814e-10
-0.224, 7.870e-10
-0.223, 7.926e-10
-0.222, 7.985e-10
-0.221, 8.048e-10
-0.220, 8.107e-10
-0.219, 8.181e-10
-0.218, 8.232e-10
-0.217, 8.271e-10
-0.216, 8.349e-10
-0.215, 8.403e-10
-0.214, 8.457e-10
-0.213, 8.521e-10
-0.212, 8.573e-10
-0.211, 8.632e-10
-0.210, 8.696e-10
-0.209, 8.745e-10
-0.208, 8.805e-10
-0.207, 8.878e-10
-0.206, 8.940e-10
-0.205, 8.981e-10
-0.204, 9.003e-10
-0.203, 9.082e-10
-0.202, 9.156e-10
-0.201, 9.223e-10
-0.200, 9.287e-10
-0.199, 9.355e-10
-0.198, 9.414e-10
-0.197, 9.493e-10
-0.196, 9.553e-10
-0.195, 9.596e-10
-0.194, 9.647e-10
-0.193, 9.698e-10
-0.192, 9.761e-10
-0.191, 9.838e-10
-0.190, 9.887e-10
-0.189, 9.949e-10
-0.188, 9.990e-10
-0.187, 1.005e-9
-0.186, 1.011e-9
-0.185, 1.016e-9
-0.184, 1.023e-9
-0.183, 1.028e-9
-0.182, 1.034e-9
-0.181, 1.040e-9
-0.180, 1.047e-9
-0.179, 1.052e-9
-0.178, 1.058e-9
-0.177, 1.065e-9
-0.176, 1.071e-9
-0.175, 1.076e-9
-0.174, 1.082e-9
-0.173, 1.088e-9
-0.172, 1.093e-9
-0.171, 1.099e-9
-0.170, 1.104e-9
-0.169, 1.107e-9
-0.168, 1.115e-9
-0.167, 1.121e-9
-0.166, 1.124e-9
-0.165, 1.129e-9
-0.164, 1.135e-9
-0.163, 1.140e-9
-0.162, 1.147e-9
-0.161, 1.152e-9
-0.160, 1.159e-9
-0.159, 1.164e-9
-0.158, 1.171e-9
-0.157, 1.177e-9
-0.156, 1.184e-9
-0.155, 1.190e-9
-0.154, 1.198e-9
-0.153, 1.202e-9
-0.152, 1.209e-9
-0.151, 1.215e-9
-0.150, 1.221e-9
-0.149, 1.227e-9
-0.148, 1.234e-9
-0.147, 1.239e-9
-0.146, 1.245e-9
-0.145, 1.251e-9
-0.144, 1.256e-9
-0.143, 1.262e-9
-0.142, 1.268e-9
-0.141, 1.273e-9
-0.140, 1.278e-9
-0.139, 1.284e-9
-0.138, 1.290e-9
-0.137, 1.297e-9
-0.136, 1.302e-9
-0.135, 1.308e-9
-0.134, 1.315e-9
-0.133, 1.322e-9
-0.132, 1.326e-9
-0.131, 1.332e-9
-0.130, 1.339e-9
-0.129, 1.344e-9
-0.128, 1.350e-9
-0.127, 1.356e-9
-0.126, 1.363e-9
-0.125, 1.369e-9
-0.124, 1.375e-9
-0.123, 1.380e-9
-0.122, 1.386e-9
-0.121, 1.392e-9
-0.120, 1.398e-9
-0.119, 1.404e-9
-0.118, 1.410e-9
-0.117, 1.417e-9
-0.116, 1.424e-9
-0.115, 1.429e-9
-0.114, 1.436e-9
-0.113, 1.441e-9
-0.112, 1.447e-9
-0.111, 1.453e-9
-0.110, 1.460e-9
-0.109, 1.465e-9
-0.108, 1.472e-9
-0.107, 1.479e-9
-0.106, 1.483e-9
-0.105, 1.489e-9
-0.104, 1.494e-9
-0.103, 1.499e-9
-0.102, 1.510e-9
-0.101, 1.515e-9
-0.100, 1.520e-9
-0.099, 1.525e-9
-0.098, 1.531e-9
-0.097, 1.537e-9
-0.096, 1.544e-9
-0.095, 1.550e-9
-0.094, 1.556e-9
-0.093, 1.561e-9
-0.092, 1.566e-9
-0.091, 1.572e-9
-0.090, 1.577e-9
-0.089, 1.583e-9
-0.088, 1.589e-9
-0.087, 1.594e-9
-0.086, 1.599e-9
-0.085, 1.606e-9
-0.084, 1.611e-9
-0.083, 1.616e-9
-0.082, 1.621e-9
-0.081, 1.627e-9
-0.080, 1.633e-9
-0.079, 1.638e-9
-0.078, 1.643e-9
-0.077, 1.648e-9
-0.076, 1.655e-9
-0.075, 1.661e-9
-0.074, 1.668e-9
-0.073, 1.674e-9
-0.072, 1.680e-9
-0.071, 1.687e-9
-0.070, 1.693e-9
-0.069, 1.700e-9
-0.068, 1.706e-9
-0.067, 1.711e-9
-0.066, 1.718e-9
-0.065, 1.724e-9
-0.064, 1.728e-9
-0.063, 1.734e-9
-0.062, 1.740e-9
-0.061, 1.748e-9
-0.060, 1.751e-9
-0.059, 1.756e-9
-0.058, 1.763e-9
-0.057, 1.769e-9
-0.056, 1.775e-9
-0.055, 1.782e-9
-0.054, 1.786e-9
-0.053, 1.793e-9
-0.052, 1.798e-9
-0.051, 1.804e-9
-0.050, 1.809e-9
-0.049, 1.816e-9
-0.048, 1.822e-9
-0.047, 1.828e-9
-0.046, 1.834e-9
-0.045, 1.841e-9
-0.044, 1.847e-9
-0.043, 1.852e-9
-0.042, 1.859e-9
-0.041, 1.864e-9
-0.040, 1.869e-9
-0.039, 1.875e-9
-0.038, 1.880e-9
-0.037, 1.886e-9
-0.036, 1.893e-9
-0.035, 1.899e-9
-0.034, 1.906e-9
-0.033, 1.912e-9
-0.032, 1.918e-9
-0.031, 1.924e-9
-0.030, 1.930e-9
-0.029, 1.937e-9
-0.028, 1.942e-9
-0.027, 1.949e-9
-0.026, 1.955e-9
-0.025, 1.959e-9
-0.024, 1.966e-9
-0.023, 1.971e-9
-0.022, 1.976e-9
-0.021, 1.983e-9
-0.020, 1.989e-9
-0.019, 1.993e-9
-0.018, 1.999e-9
-0.017, 2.005e-9
-0.016, 2.011e-9
-0.015, 2.018e-9
-0.014, 2.022e-9
-0.013, 2.029e-9
-0.012, 2.036e-9
-0.011, 2.041e-9
-0.010, 2.049e-9
-0.009, 2.053e-9
-0.008, 2.059e-9
-0.007, 2.065e-9
-0.006, 2.070e-9
-0.005, 2.076e-9
-0.004, 2.081e-9
-0.003, 2.086e-9
-0.002, 2.091e-9
-0.001, 2.097e-9
0.000, 2.100e-9
0.001, 2.103e-9
0.002, 2.111e-9
0.003, 2.116e-9
0.004, 2.123e-9
0.005, 2.129e-9
0.006, 2.135e-9
0.007, 2.142e-9
0.008, 2.148e-9
0.009, 2.155e-9
0.010, 2.161e-9
0.011, 2.168e-9
0.012, 2.175e-9
0.013, 2.182e-9
0.014, 2.188e-9
0.015, 2.195e-9
0.016, 2.201e-9
0.017, 2.206e-9
0.018, 2.211e-9
0.019, 2.219e-9
0.020, 2.224e-9
0.021, 2.230e-9
0.022, 2.237e-9
0.023, 2.242e-9
0.024, 2.247e-9
0.025, 2.254e-9
0.026, 2.260e-9
0.027, 2.266e-9
0.028, 2.273e-9
0.029, 2.279e-9
0.030, 2.287e-9
0.031, 2.292e-9
0.032, 2.299e-9
0.033, 2.306e-9
0.034, 2.313e-9
0.035, 2.319e-9
0.036, 2.325e-9
0.037, 2.332e-9
0.038, 2.339e-9
0.039, 2.344e-9
0.040, 2.351e-9
0.041, 2.355e-9
0.042, 2.362e-9
0.043, 2.367e-9
0.044, 2.374e-9
0.045, 2.381e-9
0.046, 2.387e-9
0.047, 2.394e-9
0.048, 2.399e-9
0.049, 2.406e-9
0.050, 2.413e-9
0.051, 2.419e-9
0.052, 2.426e-9
0.053, 2.432e-9
0.054, 2.438e-9
0.055, 2.444e-9
0.056, 2.452e-9
0.057, 2.457e-9
0.058, 2.464e-9
0.059, 2.471e-9
0.060, 2.476e-9
0.061, 2.483e-9
0.062, 2.490e-9
0.063, 2.497e-9
0.064, 2.503e-9
0.065, 2.509e-9
0.066, 2.515e-9
0.067, 2.523e-9
0.068, 2.530e-9
0.069, 2.538e-9
0.070, 2.544e-9
0.071, 2.552e-9
0.072, 2.560e-9
0.073, 2.566e-9
0.074, 2.571e-9
0.075, 2.577e-9
0.076, 2.584e-9
0.077, 2.591e-9
0.078, 2.596e-9
0.079, 2.603e-9
0.080, 2.612e-9
0.081, 2.619e-9
0.082, 2.626e-9
0.083, 2.634e-9
0.084, 2.644e-9
0.085, 2.653e-9
0.086, 2.660e-9
0.087, 2.667e-9
0.088, 2.677e-9
0.089, 2.686e-9
0.090, 2.694e-9
0.091, 2.703e-9
0.092, 2.712e-9
0.093, 2.722e-9
0.094, 2.732e-9
0.095, 2.739e-9
0.096, 2.751e-9
0.097, 2.762e-9
0.098, 2.776e-9
0.099, 2.790e-9
0.100, 2.806e-9
0.101, 2.825e-9
0.102, 2.849e-9
0.103, 2.887e-9
0.104, 2.924e-9
0.105, 2.969e-9
0.106, 3.028e-9
0.107, 3.101e-9
0.108, 3.197e-9
0.109, 3.298e-9
0.110, 3.424e-9
0.111, 3.567e-9
0.112, 3.739e-9
0.113, 3.930e-9
0.114, 4.136e-9
0.115, 4.373e-9
0.116, 4.597e-9
0.117, 4.776e-9
0.118, 4.947e-9
0.119, 5.088e-9
0.120, 5.200e-9
0.121, 5.238e-9
0.122, 5.195e-9
0.123, 5.125e-9
0.124, 4.972e-9
0.125, 4.810e-9
0.126, 4.641e-9
0.127, 4.498e-9
0.128, 4.336e-9
0.129, 4.207e-9
0.130, 4.066e-9
0.131, 3.925e-9
0.132, 3.803e-9
0.133, 3.695e-9
0.134, 3.586e-9
0.135, 3.501e-9
0.136, 3.409e-9
0.137, 3.337e-9
0.138, 3.282e-9
0.139, 3.233e-9
0.140, 3.194e-9
0.141, 3.156e-9
0.142, 3.129e-9
0.143, 3.114e-9
0.144, 3.100e-9
0.145, 3.091e-9
0.146, 3.087e-9
0.147, 3.082e-9
0.148, 3.077e-9
0.149, 3.073e-9
0.150, 3.071e-9
0.151, 3.071e-9
0.152, 3.069e-9
0.153, 3.068e-9
0.154, 3.067e-9
0.155, 3.068e-9
0.156, 3.069e-9
0.157, 3.069e-9
0.158, 3.069e-9
0.159, 3.072e-9
0.160, 3.074e-9
0.161, 3.076e-9
0.162, 3.078e-9
0.163, 3.077e-9
0.164, 3.077e-9
0.165, 3.080e-9
0.166, 3.084e-9
0.167, 3.086e-9
0.168, 3.087e-9
0.169, 3.090e-9
0.170, 3.090e-9
0.171, 3.095e-9
0.172, 3.097e-9
0.173, 3.101e-9
0.174, 3.104e-9
0.175, 3.107e-9
0.176, 3.110e-9
0.177, 3.114e-9
0.178, 3.116e-9
0.179, 3.120e-9
0.180, 3.125e-9
0.181, 3.127e-9
0.182, 3.131e-9
0.183, 3.134e-9
0.184, 3.136e-9
0.185, 3.141e-9
0.186, 3.147e-9
0.187, 3.149e-9
0.188, 3.154e-9
0.189, 3.154e-9
0.190, 3.156e-9
0.191, 3.157e-9
0.192, 3.162e-9
0.193, 3.166e-9
0.194, 3.168e-9
0.195, 3.172e-9
0.196, 3.173e-9
0.197, 3.177e-9
0.198, 3.182e-9
0.199, 3.185e-9
0.200, 3.188e-9
0.201, 3.190e-9
0.202, 3.193e-9
0.203, 3.197e-9
0.204, 3.201e-9
0.205, 3.198e-9
0.206, 3.200e-9
0.207, 3.205e-9
0.208, 3.208e-9
0.209, 3.210e-9
0.210, 3.212e-9
0.211, 3.215e-9
0.212, 3.218e-9
0.213, 3.222e-9
0.214, 3.225e-9
0.215, 3.224e-9
0.216, 3.230e-9
0.217, 3.232e-9
0.218, 3.234e-9
0.219, 3.237e-9
0.220, 3.241e-9
0.221, 3.244e-9
0.222, 3.248e-9
0.223, 3.249e-9
0.224, 3.251e-9
0.225, 3.253e-9
0.226, 3.254e-9
0.227, 3.257e-9
0.228, 3.261e-9
0.229, 3.263e-9
0.230, 3.265e-9
0.231, 3.268e-9
0.232, 3.270e-9
0.233, 3.274e-9
0.234, 3.275e-9
0.235, 3.278e-9
0.236, 3.281e-9
0.237, 3.283e-9
0.238, 3.286e-9
0.239, 3.287e-9
0.240, 3.290e-9
0.241, 3.293e-9
0.242, 3.296e-9
0.243, 3.297e-9
0.244, 3.299e-9
0.245, 3.302e-9
0.246, 3.303e-9
0.247, 3.305e-9
0.248, 3.308e-9
0.249, 3.311e-9
0.250, 3.314e-9
0.251, 3.318e-9
0.252, 3.319e-9
0.253, 3.325e-9
0.254, 3.326e-9
0.255, 3.326e-9
0.256, 3.328e-9
0.257, 3.330e-9
0.258, 3.333e-9
0.259, 3.334e-9
0.260, 3.337e-9
0.261, 3.339e-9
0.262, 3.343e-9
0.263, 3.345e-9
0.264, 3.347e-9
0.265, 3.349e-9
0.266, 3.351e-9
0.267, 3.355e-9
0.268, 3.358e-9
0.269, 3.362e-9
0.270, 3.366e-9
0.271, 3.368e-9
0.272, 3.370e-9
0.273, 3.372e-9
0.274, 3.375e-9
0.275, 3.378e-9
0.276, 3.379e-9
0.277, 3.382e-9
0.278, 3.386e-9
0.279, 3.390e-9
0.280, 3.392e-9
0.281, 3.395e-9
0.282, 3.397e-9
0.283, 3.402e-9
0.284, 3.405e-9
0.285, 3.408e-9
0.286, 3.409e-9
0.287, 3.413e-9
0.288, 3.418e-9
0.289, 3.422e-9
0.290, 3.424e-9
0.291, 3.427e-9
0.292, 3.431e-9
0.293, 3.435e-9
0.294, 3.438e-9
0.295, 3.439e-9
0.296, 3.443e-9
0.297, 3.447e-9
0.298, 3.448e-9
0.299, 3.452e-9
0.300, 3.455e-9
0.301, 3.458e-9
0.302, 3.462e-9
0.303, 3.464e-9
0.304, 3.469e-9
0.305, 3.473e-9
0.306, 3.475e-9
0.307, 3.481e-9
0.308, 3.487e-9
0.309, 3.489e-9
0.310, 3.492e-9
0.311, 3.494e-9
0.312, 3.498e-9
0.313, 3.503e-9
0.314, 3.504e-9
0.315, 3.510e-9
0.316, 3.513e-9
0.317, 3.516e-9
0.318, 3.520e-9
0.319, 3.526e-9
0.320, 3.529e-9
0.321, 3.531e-9
0.322, 3.535e-9
0.323, 3.539e-9
0.324, 3.542e-9
0.325, 3.546e-9
0.326, 3.551e-9
0.327, 3.554e-9
0.328, 3.557e-9
0.329, 3.562e-9
0.330, 3.564e-9
0.331, 3.569e-9
0.332, 3.573e-9
0.333, 3.576e-9
0.334, 3.580e-9
0.335, 3.583e-9
0.336, 3.587e-9
0.337, 3.589e-9
0.338, 3.594e-9
0.339, 3.599e-9
0.340, 3.602e-9
0.341, 3.607e-9
0.342, 3.613e-9
0.343, 3.616e-9
0.344, 3.621e-9
0.345, 3.626e-9
0.346, 3.631e-9
0.347, 3.636e-9
0.348, 3.642e-9
0.349, 3.647e-9
0.350, 3.653e-9
0.351, 3.658e-9
0.352, 3.663e-9
0.353, 3.668e-9
0.354, 3.673e-9
0.355, 3.677e-9
0.356, 3.681e-9
0.357, 3.686e-9
0.358, 3.691e-9
0.359, 3.695e-9
0.360, 3.699e-9
0.361, 3.702e-9
0.362, 3.707e-9
0.363, 3.714e-9
0.364, 3.718e-9
0.365, 3.724e-9
0.366, 3.730e-9
0.367, 3.736e-9
0.368, 3.739e-9
0.369, 3.744e-9
0.370, 3.748e-9
0.371, 3.751e-9
0.372, 3.756e-9
0.373, 3.761e-9
0.374, 3.767e-9
0.375, 3.773e-9
0.376, 3.776e-9
0.377, 3.782e-9
0.378, 3.787e-9
0.379, 3.791e-9
0.380, 3.797e-9
0.381, 3.801e-9
0.382, 3.804e-9
0.383, 3.809e-9
0.384, 3.812e-9
0.385, 3.817e-9
0.386, 3.822e-9
0.387, 3.826e-9
0.388, 3.830e-9
0.389, 3.837e-9
0.390, 3.843e-9
0.391, 3.850e-9
0.392, 3.855e-9
0.393, 3.861e-9
0.394, 3.865e-9
0.395, 3.871e-9
0.396, 3.876e-9
0.397, 3.882e-9
0.398, 3.888e-9
0.399, 3.894e-9
0.400, 3.900e-9
0.401, 3.904e-9
0.402, 3.910e-9
0.403, 3.915e-9
0.404, 3.921e-9
0.405, 3.927e-9
0.406, 3.931e-9
0.407, 3.936e-9
0.408, 3.942e-9
0.409, 3.948e-9
0.410, 3.948e-9
0.411, 3.955e-9
0.412, 3.962e-9
0.413, 3.969e-9
0.414, 3.974e-9
0.415, 3.980e-9
0.416, 3.985e-9
0.417, 3.993e-9
0.418, 3.998e-9
0.419, 4.006e-9
0.420, 4.012e-9
0.421, 4.019e-9
0.422, 4.024e-9
0.423, 4.029e-9
0.424, 4.034e-9
0.425, 4.040e-9
0.426, 4.045e-9
0.427, 4.051e-9
0.428, 4.056e-9
0.429, 4.061e-9
0.430, 4.066e-9
0.431, 4.072e-9
0.432, 4.078e-9
0.433, 4.084e-9
0.434, 4.090e-9
0.435, 4.097e-9
0.436, 4.102e-9
0.437, 4.110e-9
0.438, 4.118e-9
0.439, 4.124e-9
0.440, 4.130e-9
0.441, 4.140e-9
0.442, 4.149e-9
0.443, 4.156e-9
0.444, 4.163e-9
0.445, 4.170e-9
0.446, 4.176e-9
0.447, 4.182e-9
0.448, 4.190e-9
0.449, 4.196e-9
0.450, 4.201e-9
0.451, 4.207e-9
0.452, 4.215e-9
0.453, 4.224e-9
0.454, 4.230e-9
0.455, 4.237e-9
0.456, 4.244e-9
0.457, 4.249e-9
0.458, 4.256e-9
0.459, 4.263e-9
0.460, 4.269e-9
0.461, 4.273e-9
0.462, 4.279e-9
0.463, 4.287e-9
0.464, 4.293e-9
0.465, 4.300e-9
0.466, 4.306e-9
0.467, 4.313e-9
0.468, 4.319e-9
0.469, 4.326e-9
0.470, 4.334e-9
0.471, 4.340e-9
0.472, 4.346e-9
0.473, 4.352e-9
0.474, 4.359e-9
0.475, 4.367e-9
0.476, 4.375e-9
0.477, 4.382e-9
0.478, 4.391e-9
0.479, 4.397e-9
0.480, 4.404e-9
0.481, 4.411e-9
0.482, 4.417e-9
0.483, 4.425e-9
0.484, 4.433e-9
0.485, 4.441e-9
0.486, 4.449e-9
0.487, 4.456e-9
0.488, 4.464e-9
0.489, 4.472e-9
0.490, 4.478e-9
0.491, 4.486e-9
0.492, 4.495e-9
0.493, 4.505e-9
0.494, 4.511e-9
0.495, 4.517e-9
0.496, 4.525e-9
0.497, 4.532e-9
0.498, 4.541e-9
0.499, 4.548e-9
0.500, 4.519e-9
0.499, 4.364e-9
0.498, 4.249e-9
0.497, 4.161e-9
0.496, 4.082e-9
0.495, 4.023e-9
0.494, 3.964e-9
0.493, 3.910e-9
0.492, 3.859e-9
0.491, 3.812e-9
0.490, 3.769e-9
0.489, 3.723e-9
0.488, 3.678e-9
0.487, 3.634e-9
0.486, 3.592e-9
0.485, 3.555e-9
0.484, 3.521e-9
0.483, 3.485e-9
0.482, 3.450e-9
0.481, 3.415e-9
0.480, 3.377e-9
0.479, 3.345e-9
0.478, 3.315e-9
0.477, 3.285e-9
0.476, 3.256e-9
0.475, 3.226e-9
0.474, 3.196e-9
0.473, 3.165e-9
0.472, 3.132e-9
0.471, 3.103e-9
0.470, 3.080e-9
0.469, 3.057e-9
0.468, 3.031e-9
0.467, 3.004e-9
0.466, 2.978e-9
0.465, 2.954e-9
0.464, 2.931e-9
0.463, 2.907e-9
0.462, 2.883e-9
0.461, 2.860e-9
0.460, 2.840e-9
0.459, 2.819e-9
0.458, 2.797e-9
0.457, 2.777e-9
0.456, 2.755e-9
0.455, 2.733e-9
0.454, 2.711e-9
0.453, 2.689e-9
0.452, 2.666e-9
0.451, 2.645e-9
0.450, 2.624e-9
0.449, 2.605e-9
0.448, 2.588e-9
0.447, 2.571e-9
0.446, 2.552e-9
0.445, 2.533e-9
0.444, 2.516e-9
0.443, 2.495e-9
0.442, 2.478e-9
0.441, 2.460e-9
0.440, 2.443e-9
0.439, 2.426e-9
0.438, 2.410e-9
0.437, 2.391e-9
0.436, 2.374e-9
0.435, 2.358e-9
0.434, 2.342e-9
0.433, 2.325e-9
0.432, 2.307e-9
0.431, 2.289e-9
0.430, 2.273e-9
0.429, 2.257e-9
0.428, 2.242e-9
0.427, 2.226e-9
0.426, 2.211e-9
0.425, 2.197e-9
0.424, 2.181e-9
0.423, 2.164e-9
0.422, 2.148e-9
0.421, 2.132e-9
0.420, 2.117e-9
0.419, 2.105e-9
0.418, 2.092e-9
0.417, 2.079e-9
0.416, 2.064e-9
0.415, 2.050e-9
0.414, 2.035e-9
0.413, 2.021e-9
0.412, 2.007e-9
0.411, 1.994e-9
0.410, 1.982e-9
0.409, 1.974e-9
0.408, 1.959e-9
0.407, 1.942e-9
0.406, 1.928e-9
0.405, 1.914e-9
0.404, 1.901e-9
0.403, 1.886e-9
0.402, 1.873e-9
0.401, 1.860e-9
0.400, 1.846e-9
0.399, 1.833e-9
0.398, 1.820e-9
0.397, 1.807e-9
0.396, 1.794e-9
0.395, 1.779e-9
0.394, 1.767e-9
0.393, 1.757e-9
0.392, 1.743e-9
0.391, 1.732e-9
0.390, 1.719e-9
0.389, 1.707e-9
0.388, 1.694e-9
0.387, 1.682e-9
0.386, 1.669e-9
0.385, 1.656e-9
0.384, 1.643e-9
0.383, 1.632e-9
0.382, 1.620e-9
0.381, 1.610e-9
0.380, 1.598e-9
0.379, 1.587e-9
0.378, 1.575e-9
0.377, 1.563e-9
0.376, 1.552e-9
0.375, 1.541e-9
0.374, 1.531e-9
0.373, 1.519e-9
0.372, 1.508e-9
0.371, 1.498e-9
0.370, 1.486e-9
0.369, 1.476e-9
0.368, 1.464e-9
0.367, 1.453e-9
0.366, 1.441e-9
0.365, 1.429e-9
0.364, 1.418e-9
0.363, 1.406e-9
0.362, 1.395e-9
0.361, 1.385e-9
0.360, 1.375e-9
0.359, 1.364e-9
0.358, 1.353e-9
0.357, 1.341e-9
0.356, 1.329e-9
0.355, 1.320e-9
0.354, 1.308e-9
0.353, 1.298e-9
0.352, 1.288e-9
0.351, 1.276e-9
0.350, 1.267e-9
0.349, 1.257e-9
0.348, 1.248e-9
0.347, 1.238e-9
0.346, 1.227e-9
0.345, 1.218e-9
0.344, 1.207e-9
0.343, 1.196e-9
0.342, 1.185e-9
0.341, 1.174e-9
0.340, 1.163e-9
0.339, 1.153e-9
0.338, 1.143e-9
0.337, 1.135e-9
0.336, 1.125e-9
0.335, 1.116e-9
0.334, 1.108e-9
0.333, 1.099e-9
0.332, 1.090e-9
0.331, 1.080e-9
0.330, 1.070e-9
0.329, 1.061e-9
0.328, 1.052e-9
0.327, 1.042e-9
0.326, 1.032e-9
0.325, 1.023e-9
0.324, 1.014e-9
0.323, 1.005e-9
0.322, 9.963e-10
0.321, 9.874e-10
0.320, 9.777e-10
0.319, 9.686e-10
0.318, 9.592e-10
0.317, 9.487e-10
0.316, 9.396e-10
0.315, 9.303e-10
0.314, 9.207e-10
0.313, 9.108e-10
0.312, 9.013e-10
0.311, 8.910e-10
0.310, 8.826e-10
0.309, 8.729e-10
0.308, 8.652e-10
0.307, 8.519e-10
0.306, 8.438e-10
0.305, 8.358e-10
0.304, 8.275e-10
0.303, 8.173e-10
0.302, 8.091e-10
0.301, 8.010e-10
0.300, 7.917e-10
0.299, 7.832e-10
0.298, 7.748e-10
0.297, 7.670e-10
0.296, 7.579e-10
0.295, 7.499e-10
0.294, 7.426e-10
0.293, 7.328e-10
0.292, 7.243e-10
0.291, 7.148e-10
0.290, 7.054e-10
0.289, 6.955e-10
0.288, 6.861e-10
0.287, 6.773e-10
0.286, 6.690e-10
0.285, 6.598e-10
0.284, 6.519e-10
0.283, 6.441e-10
0.282, 6.367e-10
0.281, 6.290e-10
0.280, 6.215e-10
0.279, 6.132e-10
0.278, 6.060e-10
0.277, 5.971e-10
0.276, 5.886e-10
0.275, 5.787e-10
0.274, 5.716e-10
0.273, 5.629e-10
0.272, 5.550e-10
0.271, 5.462e-10
0.270, 5.378e-10
0.269, 5.303e-10
0.268, 5.219e-10
0.267, 5.133e-10
0.266, 5.044e-10
0.265, 4.954e-10
0.264, 4.864e-10
0.263, 4.756e-10
0.262, 4.661e-10
0.261, 4.566e-10
0.260, 4.453e-10
0.259, 4.367e-10
0.258, 4.286e-10
0.257, 4.199e-10
0.256, 4.120e-10
0.255, 4.037e-10
0.254, 3.960e-10
0.253, 3.894e-10
0.252, 3.826e-10
0.251, 3.751e-10
0.250, 3.664e-10
0.249, 3.593e-10
0.248, 3.503e-10
0.247, 3.426e-10
0.246, 3.348e-10
0.245, 3.279e-10
0.244, 3.201e-10
0.243, 3.121e-10
0.242, 3.041e-10
0.241, 2.963e-10
0.240, 2.883e-10
0.239, 2.809e-10
0.238, 2.723e-10
0.237, 2.645e-10
0.236, 2.574e-10
0.235, 2.480e-10
0.234, 2.397e-10
0.233, 2.323e-10
0.232, 2.237e-10
0.231, 2.149e-10
0.230, 2.076e-10
0.229, 1.967e-10
0.228, 1.883e-10
0.227, 1.808e-10
0.226, 1.729e-10
0.225, 1.653e-10
0.224, 1.586e-10
0.223, 1.507e-10
0.222, 1.440e-10
0.221, 1.372e-10
0.220, 1.298e-10
0.219, 1.221e-10
0.218, 1.144e-10
0.217, 1.074e-10
0.216, 9.869e-11
0.215, 9.050e-11
0.214, 8.173e-11
0.213, 7.549e-11
0.212, 6.769e-11
0.211, 5.921e-11
0.210, 5.044e-11
0.209, 4.303e-11
0.208, 3.650e-11
0.207, 2.880e-11
0.206, 2.168e-11
0.205, 1.427e-11
0.204, 8.033e-12
0.203, -2.203e-12
0.202, -1.185e-11
0.201, -2.189e-11
0.200, -3.145e-11
0.199, -4.022e-11
0.198, -4.899e-11
0.197, -5.796e-11
0.196, -6.625e-11
0.195, -7.395e-11
0.194, -8.263e-11
0.193, -8.877e-11
0.192, -9.666e-11
0.191, -1.046e-10
0.190, -1.118e-10
0.189, -1.197e-10
0.188, -1.291e-10
0.187, -1.378e-10
0.186, -1.459e-10
0.185, -1.544e-10
0.184, -1.629e-10
0.183, -1.704e-10
0.182, -1.785e-10
0.181, -1.867e-10
0.180, -1.943e-10
0.179, -2.029e-10
0.178, -2.119e-10
0.177, -2.203e-10
0.176, -2.282e-10
0.175, -2.361e-10
0.174, -2.450e-10
0.173, -2.547e-10
0.172, -2.668e-10
0.171, -2.754e-10
0.170, -2.848e-10
0.169, -2.949e-10
0.168, -3.033e-10
0.167, -3.116e-10
0.166, -3.199e-10
0.165, -3.285e-10
0.164, -3.361e-10
0.163, -3.433e-10
0.162, -3.517e-10
0.161, -3.596e-10
0.160, -3.689e-10
0.159, -3.778e-10
0.158, -3.865e-10
0.157, -3.953e-10
0.156, -4.048e-10
0.155, -4.139e-10
0.154, -4.230e-10
0.153, -4.323e-10
0.152, -4.395e-10
0.151, -4.489e-10
0.150, -4.570e-10
0.149, -4.661e-10
0.148, -4.758e-10
0.147, -4.851e-10
0.146, -4.961e-10
0.145, -5.054e-10
0.144, -5.179e-10
0.143, -5.282e-10
0.142, -5.391e-10
0.141, -5.485e-10
0.140, -5.571e-10
0.139, -5.665e-10
0.138, -5.751e-10
0.137, -5.845e-10
0.136, -5.928e-10
0.135, -6.043e-10
0.134, -6.132e-10
0.133, -6.223e-10
0.132, -6.325e-10
0.131, -6.414e-10
0.130, -6.513e-10
0.129, -6.611e-10
0.128, -6.704e-10
0.127, -6.805e-10
0.126, -6.907e-10
0.125, -7.007e-10
0.124, -7.094e-10
0.123, -7.187e-10
0.122, -7.303e-10
0.121, -7.399e-10
0.120, -7.503e-10
0.119, -7.616e-10
0.118, -7.725e-10
0.117, -7.834e-10
0.116, -7.950e-10
0.115, -8.031e-10
0.114, -8.126e-10
0.113, -8.210e-10
0.112, -8.300e-10
0.111, -8.405e-10
0.110, -8.499e-10
0.109, -8.597e-10
0.108, -8.697e-10
0.107, -8.799e-10
0.106, -8.897e-10
0.105, -8.998e-10
0.104, -9.117e-10
0.103, -9.225e-10
0.102, -9.380e-10
0.101, -9.475e-10
0.100, -9.574e-10
0.099, -9.676e-10
0.098, -9.772e-10
0.097, -9.907e-10
0.096, -1.001e-9
0.095, -1.013e-9
0.094, -1.024e-9
0.093, -1.036e-9
0.092, -1.047e-9
0.091, -1.058e-9
0.090, -1.068e-9
0.089, -1.077e-9
0.088, -1.087e-9
0.087, -1.097e-9
0.086, -1.108e-9
0.085, -1.119e-9
0.084, -1.129e-9
0.083, -1.139e-9
0.082, -1.151e-9
0.081, -1.161e-9
0.080, -1.171e-9
0.079, -1.181e-9
0.078, -1.194e-9
0.077, -1.204e-9
0.076, -1.214e-9
0.075, -1.225e-9
0.074, -1.237e-9
0.073, -1.249e-9
0.072, -1.260e-9
0.071, -1.272e-9
0.070, -1.283e-9
0.069, -1.294e-9
0.068, -1.304e-9
0.067, -1.311e-9
0.066, -1.322e-9
0.065, -1.333e-9
0.064, -1.343e-9
0.063, -1.353e-9
0.062, -1.363e-9
0.061, -1.374e-9
0.060, -1.384e-9
0.059, -1.393e-9
0.058, -1.404e-9
0.057, -1.416e-9
0.056, -1.425e-9
0.055, -1.436e-9
0.054, -1.445e-9
0.053, -1.457e-9
0.052, -1.467e-9
0.051, -1.477e-9
0.050, -1.489e-9
0.049, -1.500e-9
0.048, -1.511e-9
0.047, -1.522e-9
0.046, -1.531e-9
0.045, -1.542e-9
0.044, -1.552e-9
0.043, -1.561e-9
0.042, -1.569e-9
0.041, -1.578e-9
0.040, -1.588e-9
0.039, -1.597e-9
0.038, -1.605e-9
0.037, -1.616e-9
0.036, -1.624e-9
0.035, -1.633e-9
0.034, -1.643e-9
0.033, -1.652e-9
0.032, -1.662e-9
0.031, -1.671e-9
0.030, -1.679e-9
0.029, -1.688e-9
0.028, -1.696e-9
0.027, -1.706e-9
0.026, -1.715e-9
0.025, -1.724e-9
0.024, -1.735e-9
0.023, -1.744e-9
0.022, -1.753e-9
0.021, -1.763e-9
0.020, -1.773e-9
0.019, -1.781e-9
0.018, -1.789e-9
0.017, -1.796e-9
0.016, -1.803e-9
0.015, -1.811e-9
0.014, -1.821e-9
0.013, -1.829e-9
0.012, -1.837e-9
0.011, -1.844e-9
0.010, -1.854e-9
0.009, -1.861e-9
0.008, -1.870e-9
0.007, -1.879e-9
0.006, -1.888e-9
0.005, -1.896e-9
0.004, -1.903e-9
0.003, -1.910e-9
0.002, -1.918e-9
0.001, -1.924e-9
-0.000, -1.927e-9
-0.001, -1.934e-9
-0.002, -1.943e-9
-0.003, -1.952e-9
-0.004, -1.959e-9
-0.005, -1.965e-9
-0.006, -1.973e-9
-0.007, -1.982e-9
-0.008, -1.990e-9
-0.009, -1.998e-9
-0.010, -2.005e-9
-0.011, -2.013e-9
-0.012, -2.020e-9
-0.013, -2.026e-9
-0.014, -2.034e-9
-0.015, -2.042e-9
-0.016, -2.049e-9
-0.017, -2.056e-9
-0.018, -2.066e-9
-0.019, -2.075e-9
-0.020, -2.086e-9
-0.021, -2.098e-9
-0.022, -2.108e-9
-0.023, -2.120e-9
-0.024, -2.133e-9
-0.025, -2.148e-9
-0.026, -2.162e-9
-0.027, -2.175e-9
-0.028, -2.188e-9
-0.029, -2.201e-9
-0.030, -2.218e-9
-0.031, -2.234e-9
-0.032, -2.250e-9
-0.033, -2.264e-9
-0.034, -2.280e-9
-0.035, -2.296e-9
-0.036, -2.311e-9
-0.037, -2.329e-9
-0.038, -2.348e-9
-0.039, -2.363e-9
-0.040, -2.374e-9
-0.041, -2.383e-9
-0.042, -2.397e-9
-0.043, -2.418e-9
-0.044, -2.427e-9
-0.045, -2.440e-9
-0.046, -2.457e-9
-0.047, -2.469e-9
-0.048, -2.487e-9
-0.049, -2.507e-9
-0.050, -2.524e-9
-0.051, -2.538e-9
-0.052, -2.549e-9
-0.053, -2.557e-9
-0.054, -2.569e-9
-0.055, -2.572e-9
-0.056, -2.567e-9
-0.057, -2.579e-9
-0.058, -2.599e-9
-0.059, -2.598e-9
-0.060, -2.583e-9
-0.061, -2.586e-9
-0.062, -2.593e-9
-0.063, -2.594e-9
-0.064, -2.578e-9
-0.065, -2.582e-9
-0.066, -2.570e-9
-0.067, -2.562e-9
-0.068, -2.547e-9
-0.069, -2.539e-9
-0.070, -2.521e-9
-0.071, -2.512e-9
-0.072, -2.510e-9
-0.073, -2.507e-9
-0.074, -2.495e-9
-0.075, -2.478e-9
-0.076, -2.464e-9
-0.077, -2.455e-9
-0.078, -2.453e-9
-0.079, -2.463e-9
-0.080, -2.437e-9
-0.081, -2.418e-9
-0.082, -2.417e-9
-0.083, -2.416e-9
-0.084, -2.425e-9
-0.085, -2.430e-9
-0.086, -2.422e-9
-0.087, -2.423e-9
-0.088, -2.417e-9
-0.089, -2.416e-9
-0.090, -2.404e-9
-0.091, -2.411e-9
-0.092, -2.406e-9
-0.093, -2.399e-9
-0.094, -2.406e-9
-0.095, -2.415e-9
-0.096, -2.418e-9
-0.097, -2.409e-9
-0.098, -2.409e-9
-0.099, -2.413e-9
-0.100, -2.418e-9
-0.101, -2.425e-9
-0.102, -2.418e-9
-0.103, -2.415e-9
-0.104, -2.418e-9
-0.105, -2.428e-9
-0.106, -2.424e-9
-0.107, -2.421e-9
-0.108, -2.427e-9
-0.109, -2.430e-9
-0.110, -2.426e-9
-0.111, -2.435e-9
-0.112, -2.443e-9
-0.113, -2.445e-9
-0.114, -2.436e-9
-0.115, -2.449e-9
-0.116, -2.456e-9
-0.117, -2.452e-9
-0.118, -2.443e-9
-0.119, -2.438e-9
-0.120, -2.439e-9
-0.121, -2.441e-9
-0.122, -2.443e-9
-0.123, -2.445e-9
-0.124, -2.447e-9
-0.125, -2.452e-9
-0.126, -2.461e-9
-0.127, -2.461e-9
-0.128, -2.461e-9
-0.129, -2.464e-9
-0.130, -2.470e-9
-0.131, -2.469e-9
-0.132, -2.475e-9
-0.133, -2.477e-9
-0.134, -2.485e-9
-0.135, -2.485e-9
-0.136, -2.484e-9
-0.137, -2.492e-9
-0.138, -2.489e-9
-0.139, -2.487e-9
-0.140, -2.500e-9
-0.141, -2.496e-9
-0.142, -2.498e-9
-0.143, -2.496e-9
-0.144, -2.501e-9
-0.145, -2.505e-9
-0.146, -2.505e-9
-0.147, -2.507e-9
-0.148, -2.507e-9
-0.149, -2.517e-9
-0.150, -2.515e-9
-0.151, -2.516e-9
-0.152, -2.521e-9
-0.153, -2.521e-9
-0.154, -2.521e-9
-0.155, -2.528e-9
-0.156, -2.534e-9
-0.157, -2.536e-9
-0.158, -2.536e-9
-0.159, -2.539e-9
-0.160, -2.542e-9
-0.161, -2.538e-9
-0.162, -2.540e-9
-0.163, -2.545e-9
-0.164, -2.551e-9
-0.165, -2.551e-9
-0.166, -2.557e-9
-0.167, -2.554e-9
-0.168, -2.557e-9
-0.169, -2.561e-9
-0.170, -2.565e-9
-0.171, -2.566e-9
-0.172, -2.572e-9
-0.173, -2.576e-9
-0.174, -2.574e-9
-0.175, -2.580e-9
-0.176, -2.578e-9
-0.177, -2.581e-9
-0.178, -2.584e-9
-0.179, -2.588e-9
-0.180, -2.590e-9
-0.181, -2.594e-9
-0.182, -2.598e-9
-0.183, -2.601e-9
-0.184, -2.607e-9
-0.185, -2.606e-9
-0.186, -2.609e-9
-0.187, -2.612e-9
-0.188, -2.614e-9
-0.189, -2.621e-9
-0.190, -2.623e-9
-0.191, -2.624e-9
-0.192, -2.622e-9
-0.193, -2.628e-9
-0.194, -2.628e-9
-0.195, -2.632e-9
-0.196, -2.636e-9
-0.197, -2.640e-9
-0.198, -2.642e-9
-0.199, -2.642e-9
-0.200, -2.645e-9
-0.201, -2.649e-9
-0.202, -2.651e-9
-0.203, -2.657e-9
-0.204, -2.657e-9
-0.205, -2.654e-9
-0.206, -2.657e-9
-0.207, -2.661e-9
-0.208, -2.664e-9
-0.209, -2.666e-9
-0.210, -2.668e-9
-0.211, -2.672e-9
-0.212, -2.677e-9
-0.213, -2.680e-9
-0.214, -2.682e-9
-0.215, -2.685e-9
-0.216, -2.688e-9
-0.217, -2.691e-9
-0.218, -2.693e-9
-0.219, -2.698e-9
-0.220, -2.702e-9
-0.221, -2.705e-9
-0.222, -2.709e-9
-0.223, -2.711e-9
-0.224, -2.715e-9
-0.225, -2.719e-9
-0.226, -2.722e-9
-0.227, -2.725e-9
-0.228, -2.726e-9
-0.229, -2.728e-9
-0.230, -2.733e-9
-0.231, -2.736e-9
-0.232, -2.738e-9
-0.233, -2.742e-9
-0.234, -2.746e-9
-0.235, -2.751e-9
-0.236, -2.754e-9
-0.237, -2.755e-9
-0.238, -2.757e-9
-0.239, -2.760e-9
-0.240, -2.763e-9
-0.241, -2.765e-9
-0.242, -2.769e-9
-0.243, -2.771e-9
-0.244, -2.773e-9
-0.245, -2.775e-9
-0.246, -2.777e-9
-0.247, -2.778e-9
-0.248, -2.781e-9
-0.249, -2.786e-9
-0.250, -2.787e-9
-0.251, -2.791e-9
-0.252, -2.793e-9
-0.253, -2.794e-9
-0.254, -2.799e-9
-0.255, -2.800e-9
-0.256, -2.804e-9
-0.257, -2.806e-9
-0.258, -2.809e-9
-0.259, -2.813e-9
-0.260, -2.815e-9
-0.261, -2.818e-9
-0.262, -2.821e-9
-0.263, -2.823e-9
-0.264, -2.827e-9
-0.265, -2.830e-9
-0.266, -2.833e-9
-0.267, -2.837e-9
-0.268, -2.838e-9
-0.269, -2.841e-9
-0.270, -2.843e-9
-0.271, -2.846e-9
-0.272, -2.847e-9
-0.273, -2.848e-9
-0.274, -2.852e-9
-0.275, -2.856e-9
-0.276, -2.857e-9
-0.277, -2.861e-9
-0.278, -2.863e-9
-0.279, -2.864e-9
-0.280, -2.866e-9
-0.281, -2.870e-9
-0.282, -2.871e-9
-0.283, -2.873e-9
-0.284, -2.876e-9
-0.285, -2.877e-9
-0.286, -2.880e-9
-0.287, -2.884e-9
-0.288, -2.886e-9
-0.289, -2.888e-9
-0.290, -2.889e-9
-0.291, -2.892e-9
-0.292, -2.894e-9
-0.293, -2.897e-9
-0.294, -2.899e-9
-0.295, -2.899e-9
-0.296, -2.903e-9
-0.297, -2.905e-9
-0.298, -2.906e-9
-0.299, -2.908e-9
-0.300, -2.909e-9
-0.301, -2.912e-9
-0.302, -2.914e-9
-0.303, -2.916e-9
-0.304, -2.917e-9
-0.305, -2.920e-9
-0.306, -2.921e-9
-0.307, -2.926e-9
-0.308, -2.934e-9
-0.309, -2.931e-9
-0.310, -2.932e-9
-0.311, -2.934e-9
-0.312, -2.936e-9
-0.313, -2.939e-9
-0.314, -2.941e-9
-0.315, -2.943e-9
-0.316, -2.945e-9
-0.317, -2.945e-9
-0.318, -2.946e-9
-0.319, -2.949e-9
-0.320, -2.949e-9
-0.321, -2.951e-9
-0.322, -2.953e-9
-0.323, -2.954e-9
-0.324, -2.956e-9
-0.325, -2.958e-9
-0.326, -2.960e-9
-0.327, -2.963e-9
-0.328, -2.965e-9
-0.329, -2.968e-9
-0.330, -2.967e-9
-0.331, -2.969e-9
-0.332, -2.971e-9
-0.333, -2.972e-9
-0.334, -2.975e-9
-0.335, -2.977e-9
-0.336, -2.977e-9
-0.337, -2.979e-9
-0.338, -2.981e-9
-0.339, -2.983e-9
-0.340, -2.986e-9
-0.341, -2.987e-9
-0.342, -2.989e-9
-0.343, -2.989e-9
-0.344, -2.991e-9
-0.345, -2.994e-9
-0.346, -2.995e-9
-0.347, -2.996e-9
-0.348, -2.997e-9
-0.349, -2.998e-9
-0.350, -3.000e-9
-0.351, -3.002e-9
-0.352, -3.004e-9
-0.353, -3.006e-9
-0.354, -3.006e-9
-0.355, -3.009e-9
-0.356, -3.010e-9
-0.357, -3.010e-9
-0.358, -3.012e-9
-0.359, -3.013e-9
-0.360, -3.015e-9
-0.361, -3.015e-9
-0.362, -3.017e-9
-0.363, -3.020e-9
-0.364, -3.022e-9
-0.365, -3.022e-9
-0.366, -3.026e-9
-0.367, -3.027e-9
-0.368, -3.029e-9
-0.369, -3.030e-9
-0.370, -3.031e-9
-0.371, -3.033e-9
-0.372, -3.034e-9
-0.373, -3.037e-9
-0.374, -3.040e-9
-0.375, -3.039e-9
-0.376, -3.041e-9
-0.377, -3.043e-9
-0.378, -3.043e-9
-0.379, -3.045e-9
-0.380, -3.047e-9
-0.381, -3.047e-9
-0.382, -3.049e-9
-0.383, -3.050e-9
-0.384, -3.052e-9
-0.385, -3.054e-9
-0.386, -3.056e-9
-0.387, -3.056e-9
-0.388, -3.059e-9
-0.389, -3.061e-9
-0.390, -3.063e-9
-0.391, -3.064e-9
-0.392, -3.065e-9
-0.393, -3.068e-9
-0.394, -3.069e-9
-0.395, -3.070e-9
-0.396, -3.072e-9
-0.397, -3.074e-9
-0.398, -3.077e-9
-0.399, -3.078e-9
-0.400, -3.079e-9
-0.401, -3.082e-9
-0.402, -3.084e-9
-0.403, -3.086e-9
-0.404, -3.089e-9
-0.405, -3.090e-9
-0.406, -3.091e-9
-0.407, -3.093e-9
-0.408, -3.094e-9
-0.409, -3.098e-9
-0.410, -3.100e-9
-0.411, -3.101e-9
-0.412, -3.102e-9
-0.413, -3.105e-9
-0.414, -3.105e-9
-0.415, -3.108e-9
-0.416, -3.108e-9
-0.417, -3.111e-9
-0.418, -3.113e-9
-0.419, -3.115e-9
-0.420, -3.116e-9
-0.421, -3.117e-9
-0.422, -3.119e-9
-0.423, -3.119e-9
-0.424, -3.122e-9
-0.425, -3.125e-9
-0.426, -3.127e-9
-0.427, -3.129e-9
-0.428, -3.131e-9
-0.429, -3.133e-9
-0.430, -3.134e-9
-0.431, -3.136e-9
-0.432, -3.137e-9
-0.433, -3.139e-9
-0.434, -3.141e-9
-0.435, -3.142e-9
-0.436, -3.145e-9
-0.437, -3.147e-9
-0.438, -3.148e-9
-0.439, -3.149e-9
-0.440, -3.152e-9
-0.441, -3.154e-9
-0.442, -3.156e-9
-0.443, -3.159e-9
-0.444, -3.161e-9
-0.445, -3.162e-9
-0.446, -3.165e-9
-0.447, -3.167e-9
-0.448, -3.169e-9
-0.449, -3.170e-9
-0.450, -3.172e-9
-0.451, -3.175e-9
-0.452, -3.177e-9
-0.453, -3.179e-9
-0.454, -3.183e-9
-0.455, -3.185e-9
-0.456, -3.188e-9
-0.457, -3.189e-9
-0.458, -3.192e-9
-0.459, -3.196e-9
-0.460, -3.198e-9
-0.461, -3.198e-9
-0.462, -3.202e-9
-0.463, -3.205e-9
-0.464, -3.206e-9
-0.465, -3.209e-9
-0.466, -3.212e-9
-0.467, -3.216e-9
-0.468, -3.218e-9
-0.469, -3.220e-9
-0.470, -3.223e-9
-0.471, -3.225e-9
-0.472, -3.229e-9
-0.473, -3.229e-9
-0.474, -3.230e-9
-0.475, -3.233e-9
-0.476, -3.236e-9
-0.477, -3.238e-9
-0.478, -3.240e-9
-0.479, -3.242e-9
-0.480, -3.244e-9
-0.481, -3.248e-9
-0.482, -3.249e-9
-0.483, -3.250e-9
-0.484, -3.253e-9
-0.485, -3.256e-9
-0.486, -3.255e-9
-0.487, -3.257e-9
-0.488, -3.259e-9
-0.489, -3.263e-9
-0.490, -3.264e-9
-0.491, -3.268e-9
-0.492, -3.271e-9
-0.493, -3.272e-9
-0.494, -3.276e-9
-0.495, -3.279e-9
-0.496, -3.279e-9
-0.497, -3.281e-9
-0.498, -3.283e-9
-0.499, -3.287e-9
