Nov. 20, 2024   15:50:03
Cyclic Voltammetry
File: +12 2319-1 fto cv_cells_dark_surface_3.bin
Data Source:  Experiment
Instrument Model:  CHI920C
Ref. Electrode: 
Header: 
Note: 

Init E (V) = -0.5
High E (V) = 0.5
Low E (V) = -0.5
Init P/N = P
Scan Rate (V/s) = 0.05
Segment = 2
Sample Interval (V) = 0.001
Quiet Time (sec) = 10
Sensitivity (A/V) = 1e-7

Results:

Channel 1:
Segment 1:
Ep = 0.139V
ip = 1.002e-9A
Ah = 4.891e-10C

Segment 2:

Potential/V, Current/A

-0.500, -1.771e-9
-0.499, -1.702e-9
-0.498, -1.650e-9
-0.497, -1.614e-9
-0.496, -1.587e-9
-0.495, -1.562e-9
-0.494, -1.539e-9
-0.493, -1.517e-9
-0.492, -1.496e-9
-0.491, -1.475e-9
-0.490, -1.455e-9
-0.489, -1.439e-9
-0.488, -1.423e-9
-0.487, -1.408e-9
-0.486, -1.395e-9
-0.485, -1.380e-9
-0.484, -1.367e-9
-0.483, -1.355e-9
-0.482, -1.342e-9
-0.481, -1.332e-9
-0.480, -1.320e-9
-0.479, -1.309e-9
-0.478, -1.299e-9
-0.477, -1.287e-9
-0.476, -1.276e-9
-0.475, -1.265e-9
-0.474, -1.256e-9
-0.473, -1.245e-9
-0.472, -1.233e-9
-0.471, -1.221e-9
-0.470, -1.210e-9
-0.469, -1.199e-9
-0.468, -1.191e-9
-0.467, -1.181e-9
-0.466, -1.172e-9
-0.465, -1.163e-9
-0.464, -1.154e-9
-0.463, -1.145e-9
-0.462, -1.136e-9
-0.461, -1.128e-9
-0.460, -1.119e-9
-0.459, -1.113e-9
-0.458, -1.104e-9
-0.457, -1.096e-9
-0.456, -1.088e-9
-0.455, -1.081e-9
-0.454, -1.072e-9
-0.453, -1.064e-9
-0.452, -1.057e-9
-0.451, -1.049e-9
-0.450, -1.040e-9
-0.449, -1.033e-9
-0.448, -1.026e-9
-0.447, -1.017e-9
-0.446, -1.009e-9
-0.445, -1.000e-9
-0.444, -9.915e-10
-0.443, -9.827e-10
-0.442, -9.740e-10
-0.441, -9.647e-10
-0.440, -9.578e-10
-0.439, -9.507e-10
-0.438, -9.442e-10
-0.437, -9.357e-10
-0.436, -9.286e-10
-0.435, -9.217e-10
-0.434, -9.150e-10
-0.433, -9.076e-10
-0.432, -9.008e-10
-0.431, -8.942e-10
-0.430, -8.876e-10
-0.429, -8.806e-10
-0.428, -8.726e-10
-0.427, -8.648e-10
-0.426, -8.597e-10
-0.425, -8.524e-10
-0.424, -8.460e-10
-0.423, -8.388e-10
-0.422, -8.335e-10
-0.421, -8.262e-10
-0.420, -8.205e-10
-0.419, -8.160e-10
-0.418, -8.092e-10
-0.417, -8.031e-10
-0.416, -7.969e-10
-0.415, -7.894e-10
-0.414, -7.834e-10
-0.413, -7.767e-10
-0.412, -7.701e-10
-0.411, -7.633e-10
-0.410, -7.545e-10
-0.409, -7.473e-10
-0.408, -7.398e-10
-0.407, -7.326e-10
-0.406, -7.260e-10
-0.405, -7.204e-10
-0.404, -7.133e-10
-0.403, -7.063e-10
-0.402, -6.995e-10
-0.401, -6.946e-10
-0.400, -6.874e-10
-0.399, -6.806e-10
-0.398, -6.746e-10
-0.397, -6.698e-10
-0.396, -6.635e-10
-0.395, -6.578e-10
-0.394, -6.497e-10
-0.393, -6.440e-10
-0.392, -6.378e-10
-0.391, -6.311e-10
-0.390, -6.245e-10
-0.389, -6.180e-10
-0.388, -6.127e-10
-0.387, -6.072e-10
-0.386, -6.005e-10
-0.385, -5.954e-10
-0.384, -5.882e-10
-0.383, -5.826e-10
-0.382, -5.767e-10
-0.381, -5.711e-10
-0.380, -5.659e-10
-0.379, -5.586e-10
-0.378, -5.529e-10
-0.377, -5.473e-10
-0.376, -5.397e-10
-0.375, -5.358e-10
-0.374, -5.297e-10
-0.373, -5.202e-10
-0.372, -5.126e-10
-0.371, -5.058e-10
-0.370, -4.982e-10
-0.369, -4.924e-10
-0.368, -4.863e-10
-0.367, -4.794e-10
-0.366, -4.732e-10
-0.365, -4.668e-10
-0.364, -4.607e-10
-0.363, -4.554e-10
-0.362, -4.484e-10
-0.361, -4.431e-10
-0.360, -4.378e-10
-0.359, -4.320e-10
-0.358, -4.252e-10
-0.357, -4.194e-10
-0.356, -4.138e-10
-0.355, -4.084e-10
-0.354, -4.014e-10
-0.353, -3.948e-10
-0.352, -3.880e-10
-0.351, -3.823e-10
-0.350, -3.766e-10
-0.349, -3.714e-10
-0.348, -3.668e-10
-0.347, -3.602e-10
-0.346, -3.549e-10
-0.345, -3.502e-10
-0.344, -3.439e-10
-0.343, -3.384e-10
-0.342, -3.342e-10
-0.341, -3.284e-10
-0.340, -3.224e-10
-0.339, -3.165e-10
-0.338, -3.109e-10
-0.337, -3.065e-10
-0.336, -3.002e-10
-0.335, -2.944e-10
-0.334, -2.887e-10
-0.333, -2.821e-10
-0.332, -2.752e-10
-0.331, -2.671e-10
-0.330, -2.588e-10
-0.329, -2.522e-10
-0.328, -2.481e-10
-0.327, -2.406e-10
-0.326, -2.354e-10
-0.325, -2.281e-10
-0.324, -2.219e-10
-0.323, -2.160e-10
-0.322, -2.078e-10
-0.321, -2.033e-10
-0.320, -1.974e-10
-0.319, -1.916e-10
-0.318, -1.850e-10
-0.317, -1.788e-10
-0.316, -1.748e-10
-0.315, -1.684e-10
-0.314, -1.619e-10
-0.313, -1.564e-10
-0.312, -1.515e-10
-0.311, -1.460e-10
-0.310, -1.416e-10
-0.309, -1.351e-10
-0.308, -1.281e-10
-0.307, -1.184e-10
-0.306, -1.132e-10
-0.305, -1.082e-10
-0.304, -1.040e-10
-0.303, -9.813e-11
-0.302, -9.257e-11
-0.301, -8.682e-11
-0.300, -8.175e-11
-0.299, -7.678e-11
-0.298, -7.005e-11
-0.297, -6.508e-11
-0.296, -5.845e-11
-0.295, -5.143e-11
-0.294, -4.646e-11
-0.293, -3.905e-11
-0.292, -3.203e-11
-0.291, -2.618e-11
-0.290, -2.014e-11
-0.289, -1.293e-11
-0.288, -4.738e-12
-0.287, 1.891e-12
-0.286, 7.935e-12
-0.285, 1.427e-11
-0.284, 1.993e-11
-0.283, 2.558e-11
-0.282, 3.192e-11
-0.281, 3.591e-11
-0.280, 4.196e-11
-0.279, 4.781e-11
-0.278, 5.346e-11
-0.277, 5.989e-11
-0.276, 6.642e-11
-0.275, 7.081e-11
-0.274, 7.695e-11
-0.273, 8.358e-11
-0.272, 8.777e-11
-0.271, 9.430e-11
-0.270, 1.011e-10
-0.269, 1.076e-10
-0.268, 1.133e-10
-0.267, 1.175e-10
-0.266, 1.235e-10
-0.265, 1.284e-10
-0.264, 1.351e-10
-0.263, 1.408e-10
-0.262, 1.464e-10
-0.261, 1.507e-10
-0.260, 1.564e-10
-0.259, 1.613e-10
-0.258, 1.676e-10
-0.257, 1.729e-10
-0.256, 1.775e-10
-0.255, 1.837e-10
-0.254, 1.900e-10
-0.253, 1.962e-10
-0.252, 2.024e-10
-0.251, 2.105e-10
-0.250, 2.183e-10
-0.249, 2.252e-10
-0.248, 2.306e-10
-0.247, 2.356e-10
-0.246, 2.419e-10
-0.245, 2.492e-10
-0.244, 2.561e-10
-0.243, 2.604e-10
-0.242, 2.667e-10
-0.241, 2.729e-10
-0.240, 2.787e-10
-0.239, 2.846e-10
-0.238, 2.905e-10
-0.237, 2.956e-10
-0.236, 3.019e-10
-0.235, 3.069e-10
-0.234, 3.140e-10
-0.233, 3.202e-10
-0.232, 3.268e-10
-0.231, 3.340e-10
-0.230, 3.394e-10
-0.229, 3.460e-10
-0.228, 3.523e-10
-0.227, 3.583e-10
-0.226, 3.637e-10
-0.225, 3.687e-10
-0.224, 3.739e-10
-0.223, 3.797e-10
-0.222, 3.850e-10
-0.221, 3.903e-10
-0.220, 3.959e-10
-0.219, 4.019e-10
-0.218, 4.070e-10
-0.217, 4.128e-10
-0.216, 4.193e-10
-0.215, 4.254e-10
-0.214, 4.311e-10
-0.213, 4.377e-10
-0.212, 4.437e-10
-0.211, 4.513e-10
-0.210, 4.579e-10
-0.209, 4.652e-10
-0.208, 4.728e-10
-0.207, 4.805e-10
-0.206, 4.877e-10
-0.205, 4.941e-10
-0.204, 4.992e-10
-0.203, 5.058e-10
-0.202, 5.128e-10
-0.201, 5.184e-10
-0.200, 5.243e-10
-0.199, 5.302e-10
-0.198, 5.368e-10
-0.197, 5.440e-10
-0.196, 5.513e-10
-0.195, 5.565e-10
-0.194, 5.627e-10
-0.193, 5.698e-10
-0.192, 5.749e-10
-0.191, 5.803e-10
-0.190, 5.865e-10
-0.189, 5.920e-10
-0.188, 5.988e-10
-0.187, 6.040e-10
-0.186, 6.111e-10
-0.185, 6.178e-10
-0.184, 6.240e-10
-0.183, 6.306e-10
-0.182, 6.349e-10
-0.181, 6.395e-10
-0.180, 6.454e-10
-0.179, 6.508e-10
-0.178, 6.573e-10
-0.177, 6.635e-10
-0.176, 6.687e-10
-0.175, 6.731e-10
-0.174, 6.797e-10
-0.173, 6.877e-10
-0.172, 6.950e-10
-0.171, 7.007e-10
-0.170, 7.065e-10
-0.169, 7.123e-10
-0.168, 7.181e-10
-0.167, 7.255e-10
-0.166, 7.312e-10
-0.165, 7.363e-10
-0.164, 7.436e-10
-0.163, 7.489e-10
-0.162, 7.546e-10
-0.161, 7.610e-10
-0.160, 7.672e-10
-0.159, 7.732e-10
-0.158, 7.794e-10
-0.157, 7.842e-10
-0.156, 7.897e-10
-0.155, 7.955e-10
-0.154, 8.009e-10
-0.153, 8.058e-10
-0.152, 8.129e-10
-0.151, 8.178e-10
-0.150, 8.239e-10
-0.149, 8.302e-10
-0.148, 8.381e-10
-0.147, 8.444e-10
-0.146, 8.505e-10
-0.145, 8.551e-10
-0.144, 8.614e-10
-0.143, 8.667e-10
-0.142, 8.724e-10
-0.141, 8.776e-10
-0.140, 8.847e-10
-0.139, 8.905e-10
-0.138, 8.973e-10
-0.137, 9.017e-10
-0.136, 9.086e-10
-0.135, 9.170e-10
-0.134, 9.223e-10
-0.133, 9.278e-10
-0.132, 9.336e-10
-0.131, 9.395e-10
-0.130, 9.450e-10
-0.129, 9.516e-10
-0.128, 9.576e-10
-0.127, 9.622e-10
-0.126, 9.686e-10
-0.125, 9.742e-10
-0.124, 9.794e-10
-0.123, 9.859e-10
-0.122, 9.930e-10
-0.121, 9.979e-10
-0.120, 1.003e-9
-0.119, 1.009e-9
-0.118, 1.014e-9
-0.117, 1.021e-9
-0.116, 1.025e-9
-0.115, 1.031e-9
-0.114, 1.037e-9
-0.113, 1.042e-9
-0.112, 1.048e-9
-0.111, 1.052e-9
-0.110, 1.058e-9
-0.109, 1.064e-9
-0.108, 1.070e-9
-0.107, 1.077e-9
-0.106, 1.083e-9
-0.105, 1.088e-9
-0.104, 1.094e-9
-0.103, 1.099e-9
-0.102, 1.108e-9
-0.101, 1.113e-9
-0.100, 1.118e-9
-0.099, 1.123e-9
-0.098, 1.127e-9
-0.097, 1.133e-9
-0.096, 1.138e-9
-0.095, 1.142e-9
-0.094, 1.147e-9
-0.093, 1.153e-9
-0.092, 1.159e-9
-0.091, 1.165e-9
-0.090, 1.171e-9
-0.089, 1.176e-9
-0.088, 1.183e-9
-0.087, 1.188e-9
-0.086, 1.195e-9
-0.085, 1.201e-9
-0.084, 1.207e-9
-0.083, 1.213e-9
-0.082, 1.220e-9
-0.081, 1.225e-9
-0.080, 1.230e-9
-0.079, 1.236e-9
-0.078, 1.242e-9
-0.077, 1.247e-9
-0.076, 1.251e-9
-0.075, 1.257e-9
-0.074, 1.262e-9
-0.073, 1.268e-9
-0.072, 1.274e-9
-0.071, 1.279e-9
-0.070, 1.285e-9
-0.069, 1.291e-9
-0.068, 1.297e-9
-0.067, 1.302e-9
-0.066, 1.309e-9
-0.065, 1.312e-9
-0.064, 1.319e-9
-0.063, 1.324e-9
-0.062, 1.330e-9
-0.061, 1.335e-9
-0.060, 1.341e-9
-0.059, 1.347e-9
-0.058, 1.353e-9
-0.057, 1.358e-9
-0.056, 1.363e-9
-0.055, 1.369e-9
-0.054, 1.375e-9
-0.053, 1.381e-9
-0.052, 1.387e-9
-0.051, 1.392e-9
-0.050, 1.397e-9
-0.049, 1.404e-9
-0.048, 1.409e-9
-0.047, 1.416e-9
-0.046, 1.421e-9
-0.045, 1.428e-9
-0.044, 1.434e-9
-0.043, 1.440e-9
-0.042, 1.445e-9
-0.041, 1.450e-9
-0.040, 1.457e-9
-0.039, 1.463e-9
-0.038, 1.469e-9
-0.037, 1.474e-9
-0.036, 1.481e-9
-0.035, 1.485e-9
-0.034, 1.491e-9
-0.033, 1.496e-9
-0.032, 1.502e-9
-0.031, 1.509e-9
-0.030, 1.513e-9
-0.029, 1.519e-9
-0.028, 1.524e-9
-0.027, 1.530e-9
-0.026, 1.536e-9
-0.025, 1.543e-9
-0.024, 1.548e-9
-0.023, 1.554e-9
-0.022, 1.557e-9
-0.021, 1.563e-9
-0.020, 1.569e-9
-0.019, 1.576e-9
-0.018, 1.581e-9
-0.017, 1.587e-9
-0.016, 1.591e-9
-0.015, 1.597e-9
-0.014, 1.603e-9
-0.013, 1.610e-9
-0.012, 1.615e-9
-0.011, 1.620e-9
-0.010, 1.626e-9
-0.009, 1.632e-9
-0.008, 1.638e-9
-0.007, 1.644e-9
-0.006, 1.650e-9
-0.005, 1.656e-9
-0.004, 1.664e-9
-0.003, 1.669e-9
-0.002, 1.676e-9
-0.001, 1.682e-9
0.000, 1.685e-9
0.001, 1.689e-9
0.002, 1.697e-9
0.003, 1.704e-9
0.004, 1.712e-9
0.005, 1.718e-9
0.006, 1.725e-9
0.007, 1.731e-9
0.008, 1.737e-9
0.009, 1.742e-9
0.010, 1.746e-9
0.011, 1.752e-9
0.012, 1.758e-9
0.013, 1.764e-9
0.014, 1.771e-9
0.015, 1.776e-9
0.016, 1.783e-9
0.017, 1.789e-9
0.018, 1.796e-9
0.019, 1.801e-9
0.020, 1.808e-9
0.021, 1.815e-9
0.022, 1.823e-9
0.023, 1.829e-9
0.024, 1.835e-9
0.025, 1.841e-9
0.026, 1.847e-9
0.027, 1.853e-9
0.028, 1.858e-9
0.029, 1.862e-9
0.030, 1.869e-9
0.031, 1.876e-9
0.032, 1.882e-9
0.033, 1.891e-9
0.034, 1.897e-9
0.035, 1.903e-9
0.036, 1.910e-9
0.037, 1.917e-9
0.038, 1.925e-9
0.039, 1.930e-9
0.040, 1.938e-9
0.041, 1.945e-9
0.042, 1.951e-9
0.043, 1.958e-9
0.044, 1.964e-9
0.045, 1.969e-9
0.046, 1.976e-9
0.047, 1.982e-9
0.048, 1.987e-9
0.049, 1.991e-9
0.050, 1.997e-9
0.051, 2.004e-9
0.052, 2.011e-9
0.053, 2.018e-9
0.054, 2.024e-9
0.055, 2.030e-9
0.056, 2.037e-9
0.057, 2.045e-9
0.058, 2.051e-9
0.059, 2.057e-9
0.060, 2.064e-9
0.061, 2.070e-9
0.062, 2.076e-9
0.063, 2.082e-9
0.064, 2.088e-9
0.065, 2.093e-9
0.066, 2.099e-9
0.067, 2.106e-9
0.068, 2.111e-9
0.069, 2.117e-9
0.070, 2.124e-9
0.071, 2.130e-9
0.072, 2.137e-9
0.073, 2.146e-9
0.074, 2.151e-9
0.075, 2.158e-9
0.076, 2.164e-9
0.077, 2.172e-9
0.078, 2.181e-9
0.079, 2.187e-9
0.080, 2.194e-9
0.081, 2.201e-9
0.082, 2.209e-9
0.083, 2.217e-9
0.084, 2.222e-9
0.085, 2.228e-9
0.086, 2.236e-9
0.087, 2.241e-9
0.088, 2.248e-9
0.089, 2.256e-9
0.090, 2.262e-9
0.091, 2.270e-9
0.092, 2.279e-9
0.093, 2.284e-9
0.094, 2.293e-9
0.095, 2.299e-9
0.096, 2.307e-9
0.097, 2.316e-9
0.098, 2.324e-9
0.099, 2.331e-9
0.100, 2.338e-9
0.101, 2.348e-9
0.102, 2.358e-9
0.103, 2.370e-9
0.104, 2.377e-9
0.105, 2.388e-9
0.106, 2.397e-9
0.107, 2.408e-9
0.108, 2.421e-9
0.109, 2.434e-9
0.110, 2.450e-9
0.111, 2.466e-9
0.112, 2.486e-9
0.113, 2.510e-9
0.114, 2.529e-9
0.115, 2.563e-9
0.116, 2.593e-9
0.117, 2.624e-9
0.118, 2.668e-9
0.119, 2.730e-9
0.120, 2.783e-9
0.121, 2.834e-9
0.122, 2.901e-9
0.123, 2.957e-9
0.124, 3.024e-9
0.125, 3.092e-9
0.126, 3.158e-9
0.127, 3.211e-9
0.128, 3.230e-9
0.129, 3.254e-9
0.130, 3.294e-9
0.131, 3.315e-9
0.132, 3.337e-9
0.133, 3.346e-9
0.134, 3.366e-9
0.135, 3.393e-9
0.136, 3.415e-9
0.137, 3.438e-9
0.138, 3.451e-9
0.139, 3.458e-9
0.140, 3.441e-9
0.141, 3.420e-9
0.142, 3.402e-9
0.143, 3.370e-9
0.144, 3.345e-9
0.145, 3.316e-9
0.146, 3.276e-9
0.147, 3.234e-9
0.148, 3.188e-9
0.149, 3.140e-9
0.150, 3.097e-9
0.151, 3.060e-9
0.152, 3.026e-9
0.153, 2.992e-9
0.154, 2.956e-9
0.155, 2.922e-9
0.156, 2.891e-9
0.157, 2.862e-9
0.158, 2.844e-9
0.159, 2.826e-9
0.160, 2.806e-9
0.161, 2.791e-9
0.162, 2.779e-9
0.163, 2.768e-9
0.164, 2.760e-9
0.165, 2.759e-9
0.166, 2.745e-9
0.167, 2.736e-9
0.168, 2.731e-9
0.169, 2.728e-9
0.170, 2.725e-9
0.171, 2.722e-9
0.172, 2.721e-9
0.173, 2.721e-9
0.174, 2.720e-9
0.175, 2.720e-9
0.176, 2.718e-9
0.177, 2.720e-9
0.178, 2.720e-9
0.179, 2.722e-9
0.180, 2.723e-9
0.181, 2.724e-9
0.182, 2.726e-9
0.183, 2.729e-9
0.184, 2.732e-9
0.185, 2.734e-9
0.186, 2.735e-9
0.187, 2.736e-9
0.188, 2.740e-9
0.189, 2.742e-9
0.190, 2.744e-9
0.191, 2.749e-9
0.192, 2.750e-9
0.193, 2.752e-9
0.194, 2.754e-9
0.195, 2.758e-9
0.196, 2.762e-9
0.197, 2.764e-9
0.198, 2.767e-9
0.199, 2.770e-9
0.200, 2.773e-9
0.201, 2.774e-9
0.202, 2.777e-9
0.203, 2.780e-9
0.204, 2.783e-9
0.205, 2.783e-9
0.206, 2.786e-9
0.207, 2.790e-9
0.208, 2.792e-9
0.209, 2.796e-9
0.210, 2.799e-9
0.211, 2.803e-9
0.212, 2.807e-9
0.213, 2.810e-9
0.214, 2.813e-9
0.215, 2.816e-9
0.216, 2.818e-9
0.217, 2.819e-9
0.218, 2.823e-9
0.219, 2.825e-9
0.220, 2.829e-9
0.221, 2.830e-9
0.222, 2.833e-9
0.223, 2.837e-9
0.224, 2.841e-9
0.225, 2.843e-9
0.226, 2.846e-9
0.227, 2.848e-9
0.228, 2.850e-9
0.229, 2.852e-9
0.230, 2.857e-9
0.231, 2.859e-9
0.232, 2.863e-9
0.233, 2.867e-9
0.234, 2.870e-9
0.235, 2.871e-9
0.236, 2.874e-9
0.237, 2.879e-9
0.238, 2.881e-9
0.239, 2.885e-9
0.240, 2.886e-9
0.241, 2.889e-9
0.242, 2.892e-9
0.243, 2.897e-9
0.244, 2.899e-9
0.245, 2.902e-9
0.246, 2.904e-9
0.247, 2.908e-9
0.248, 2.912e-9
0.249, 2.914e-9
0.250, 2.918e-9
0.251, 2.920e-9
0.252, 2.922e-9
0.253, 2.926e-9
0.254, 2.930e-9
0.255, 2.933e-9
0.256, 2.936e-9
0.257, 2.938e-9
0.258, 2.941e-9
0.259, 2.944e-9
0.260, 2.946e-9
0.261, 2.948e-9
0.262, 2.951e-9
0.263, 2.955e-9
0.264, 2.960e-9
0.265, 2.963e-9
0.266, 2.967e-9
0.267, 2.969e-9
0.268, 2.972e-9
0.269, 2.975e-9
0.270, 2.979e-9
0.271, 2.983e-9
0.272, 2.987e-9
0.273, 2.990e-9
0.274, 2.994e-9
0.275, 2.997e-9
0.276, 3.000e-9
0.277, 3.003e-9
0.278, 3.006e-9
0.279, 3.008e-9
0.280, 3.012e-9
0.281, 3.016e-9
0.282, 3.018e-9
0.283, 3.021e-9
0.284, 3.026e-9
0.285, 3.028e-9
0.286, 3.031e-9
0.287, 3.035e-9
0.288, 3.038e-9
0.289, 3.043e-9
0.290, 3.046e-9
0.291, 3.047e-9
0.292, 3.050e-9
0.293, 3.054e-9
0.294, 3.058e-9
0.295, 3.061e-9
0.296, 3.063e-9
0.297, 3.067e-9
0.298, 3.070e-9
0.299, 3.073e-9
0.300, 3.076e-9
0.301, 3.079e-9
0.302, 3.082e-9
0.303, 3.086e-9
0.304, 3.089e-9
0.305, 3.092e-9
0.306, 3.096e-9
0.307, 3.102e-9
0.308, 3.107e-9
0.309, 3.107e-9
0.310, 3.109e-9
0.311, 3.113e-9
0.312, 3.119e-9
0.313, 3.123e-9
0.314, 3.126e-9
0.315, 3.131e-9
0.316, 3.138e-9
0.317, 3.142e-9
0.318, 3.146e-9
0.319, 3.151e-9
0.320, 3.154e-9
0.321, 3.159e-9
0.322, 3.163e-9
0.323, 3.168e-9
0.324, 3.172e-9
0.325, 3.177e-9
0.326, 3.181e-9
0.327, 3.185e-9
0.328, 3.190e-9
0.329, 3.192e-9
0.330, 3.195e-9
0.331, 3.198e-9
0.332, 3.204e-9
0.333, 3.208e-9
0.334, 3.213e-9
0.335, 3.217e-9
0.336, 3.222e-9
0.337, 3.225e-9
0.338, 3.229e-9
0.339, 3.233e-9
0.340, 3.237e-9
0.341, 3.241e-9
0.342, 3.247e-9
0.343, 3.250e-9
0.344, 3.256e-9
0.345, 3.260e-9
0.346, 3.263e-9
0.347, 3.267e-9
0.348, 3.271e-9
0.349, 3.275e-9
0.350, 3.279e-9
0.351, 3.284e-9
0.352, 3.290e-9
0.353, 3.294e-9
0.354, 3.298e-9
0.355, 3.302e-9
0.356, 3.306e-9
0.357, 3.310e-9
0.358, 3.315e-9
0.359, 3.319e-9
0.360, 3.323e-9
0.361, 3.327e-9
0.362, 3.333e-9
0.363, 3.338e-9
0.364, 3.341e-9
0.365, 3.346e-9
0.366, 3.350e-9
0.367, 3.355e-9
0.368, 3.360e-9
0.369, 3.365e-9
0.370, 3.369e-9
0.371, 3.374e-9
0.372, 3.380e-9
0.373, 3.385e-9
0.374, 3.389e-9
0.375, 3.396e-9
0.376, 3.400e-9
0.377, 3.404e-9
0.378, 3.411e-9
0.379, 3.417e-9
0.380, 3.421e-9
0.381, 3.427e-9
0.382, 3.431e-9
0.383, 3.436e-9
0.384, 3.439e-9
0.385, 3.444e-9
0.386, 3.449e-9
0.387, 3.454e-9
0.388, 3.460e-9
0.389, 3.466e-9
0.390, 3.470e-9
0.391, 3.475e-9
0.392, 3.480e-9
0.393, 3.486e-9
0.394, 3.491e-9
0.395, 3.494e-9
0.396, 3.499e-9
0.397, 3.503e-9
0.398, 3.509e-9
0.399, 3.514e-9
0.400, 3.520e-9
0.401, 3.526e-9
0.402, 3.531e-9
0.403, 3.537e-9
0.404, 3.541e-9
0.405, 3.547e-9
0.406, 3.553e-9
0.407, 3.556e-9
0.408, 3.561e-9
0.409, 3.566e-9
0.410, 3.565e-9
0.411, 3.571e-9
0.412, 3.578e-9
0.413, 3.583e-9
0.414, 3.589e-9
0.415, 3.595e-9
0.416, 3.599e-9
0.417, 3.604e-9
0.418, 3.611e-9
0.419, 3.619e-9
0.420, 3.623e-9
0.421, 3.630e-9
0.422, 3.636e-9
0.423, 3.640e-9
0.424, 3.647e-9
0.425, 3.653e-9
0.426, 3.659e-9
0.427, 3.666e-9
0.428, 3.671e-9
0.429, 3.679e-9
0.430, 3.686e-9
0.431, 3.690e-9
0.432, 3.695e-9
0.433, 3.701e-9
0.434, 3.708e-9
0.435, 3.715e-9
0.436, 3.722e-9
0.437, 3.728e-9
0.438, 3.735e-9
0.439, 3.740e-9
0.440, 3.745e-9
0.441, 3.752e-9
0.442, 3.759e-9
0.443, 3.766e-9
0.444, 3.771e-9
0.445, 3.775e-9
0.446, 3.782e-9
0.447, 3.787e-9
0.448, 3.793e-9
0.449, 3.799e-9
0.450, 3.806e-9
0.451, 3.810e-9
0.452, 3.815e-9
0.453, 3.820e-9
0.454, 3.826e-9
0.455, 3.832e-9
0.456, 3.839e-9
0.457, 3.847e-9
0.458, 3.853e-9
0.459, 3.859e-9
0.460, 3.865e-9
0.461, 3.869e-9
0.462, 3.876e-9
0.463, 3.882e-9
0.464, 3.889e-9
0.465, 3.895e-9
0.466, 3.903e-9
0.467, 3.909e-9
0.468, 3.915e-9
0.469, 3.922e-9
0.470, 3.928e-9
0.471, 3.936e-9
0.472, 3.947e-9
0.473, 3.949e-9
0.474, 3.951e-9
0.475, 3.957e-9
0.476, 3.965e-9
0.477, 3.972e-9
0.478, 3.980e-9
0.479, 3.987e-9
0.480, 3.992e-9
0.481, 3.998e-9
0.482, 4.005e-9
0.483, 4.012e-9
0.484, 4.019e-9
0.485, 4.026e-9
0.486, 4.032e-9
0.487, 4.036e-9
0.488, 4.043e-9
0.489, 4.050e-9
0.490, 4.056e-9
0.491, 4.060e-9
0.492, 4.064e-9
0.493, 4.071e-9
0.494, 4.080e-9
0.495, 4.088e-9
0.496, 4.095e-9
0.497, 4.104e-9
0.498, 4.113e-9
0.499, 4.120e-9
0.500, 4.093e-9
0.499, 3.953e-9
0.498, 3.840e-9
0.497, 3.762e-9
0.496, 3.693e-9
0.495, 3.625e-9
0.494, 3.568e-9
0.493, 3.518e-9
0.492, 3.468e-9
0.491, 3.420e-9
0.490, 3.372e-9
0.489, 3.330e-9
0.488, 3.291e-9
0.487, 3.251e-9
0.486, 3.214e-9
0.485, 3.172e-9
0.484, 3.130e-9
0.483, 3.096e-9
0.482, 3.064e-9
0.481, 3.033e-9
0.480, 3.000e-9
0.479, 2.968e-9
0.478, 2.940e-9
0.477, 2.912e-9
0.476, 2.881e-9
0.475, 2.852e-9
0.474, 2.824e-9
0.473, 2.799e-9
0.472, 2.772e-9
0.471, 2.746e-9
0.470, 2.720e-9
0.469, 2.692e-9
0.468, 2.665e-9
0.467, 2.639e-9
0.466, 2.613e-9
0.465, 2.591e-9
0.464, 2.570e-9
0.463, 2.549e-9
0.462, 2.526e-9
0.461, 2.505e-9
0.460, 2.482e-9
0.459, 2.461e-9
0.458, 2.440e-9
0.457, 2.419e-9
0.456, 2.399e-9
0.455, 2.378e-9
0.454, 2.357e-9
0.453, 2.337e-9
0.452, 2.317e-9
0.451, 2.298e-9
0.450, 2.279e-9
0.449, 2.261e-9
0.448, 2.243e-9
0.447, 2.225e-9
0.446, 2.208e-9
0.445, 2.190e-9
0.444, 2.172e-9
0.443, 2.152e-9
0.442, 2.135e-9
0.441, 2.118e-9
0.440, 2.102e-9
0.439, 2.088e-9
0.438, 2.072e-9
0.437, 2.057e-9
0.436, 2.042e-9
0.435, 2.025e-9
0.434, 2.008e-9
0.433, 1.993e-9
0.432, 1.979e-9
0.431, 1.963e-9
0.430, 1.948e-9
0.429, 1.932e-9
0.428, 1.914e-9
0.427, 1.899e-9
0.426, 1.885e-9
0.425, 1.870e-9
0.424, 1.857e-9
0.423, 1.841e-9
0.422, 1.828e-9
0.421, 1.813e-9
0.420, 1.799e-9
0.419, 1.785e-9
0.418, 1.771e-9
0.417, 1.757e-9
0.416, 1.744e-9
0.415, 1.731e-9
0.414, 1.717e-9
0.413, 1.702e-9
0.412, 1.690e-9
0.411, 1.677e-9
0.410, 1.662e-9
0.409, 1.654e-9
0.408, 1.638e-9
0.407, 1.624e-9
0.406, 1.612e-9
0.405, 1.600e-9
0.404, 1.588e-9
0.403, 1.575e-9
0.402, 1.562e-9
0.401, 1.550e-9
0.400, 1.538e-9
0.399, 1.526e-9
0.398, 1.513e-9
0.397, 1.502e-9
0.396, 1.491e-9
0.395, 1.479e-9
0.394, 1.468e-9
0.393, 1.457e-9
0.392, 1.444e-9
0.391, 1.431e-9
0.390, 1.419e-9
0.389, 1.406e-9
0.388, 1.395e-9
0.387, 1.382e-9
0.386, 1.370e-9
0.385, 1.359e-9
0.384, 1.348e-9
0.383, 1.337e-9
0.382, 1.326e-9
0.381, 1.314e-9
0.380, 1.303e-9
0.379, 1.292e-9
0.378, 1.281e-9
0.377, 1.272e-9
0.376, 1.261e-9
0.375, 1.251e-9
0.374, 1.240e-9
0.373, 1.229e-9
0.372, 1.218e-9
0.371, 1.208e-9
0.370, 1.196e-9
0.369, 1.184e-9
0.368, 1.174e-9
0.367, 1.163e-9
0.366, 1.151e-9
0.365, 1.143e-9
0.364, 1.133e-9
0.363, 1.123e-9
0.362, 1.114e-9
0.361, 1.104e-9
0.360, 1.095e-9
0.359, 1.085e-9
0.358, 1.076e-9
0.357, 1.066e-9
0.356, 1.056e-9
0.355, 1.046e-9
0.354, 1.036e-9
0.353, 1.026e-9
0.352, 1.017e-9
0.351, 1.007e-9
0.350, 9.981e-10
0.349, 9.896e-10
0.348, 9.796e-10
0.347, 9.701e-10
0.346, 9.609e-10
0.345, 9.511e-10
0.344, 9.402e-10
0.343, 9.299e-10
0.342, 9.196e-10
0.341, 9.101e-10
0.340, 8.987e-10
0.339, 8.896e-10
0.338, 8.811e-10
0.337, 8.709e-10
0.336, 8.611e-10
0.335, 8.520e-10
0.334, 8.441e-10
0.333, 8.343e-10
0.332, 8.247e-10
0.331, 8.157e-10
0.330, 8.055e-10
0.329, 7.964e-10
0.328, 7.886e-10
0.327, 7.794e-10
0.326, 7.706e-10
0.325, 7.622e-10
0.324, 7.533e-10
0.323, 7.438e-10
0.322, 7.362e-10
0.321, 7.284e-10
0.320, 7.181e-10
0.319, 7.074e-10
0.318, 6.980e-10
0.317, 6.887e-10
0.316, 6.791e-10
0.315, 6.716e-10
0.314, 6.637e-10
0.313, 6.548e-10
0.312, 6.467e-10
0.311, 6.386e-10
0.310, 6.313e-10
0.309, 6.227e-10
0.308, 6.141e-10
0.307, 6.014e-10
0.306, 5.933e-10
0.305, 5.863e-10
0.304, 5.780e-10
0.303, 5.696e-10
0.302, 5.609e-10
0.301, 5.524e-10
0.300, 5.448e-10
0.299, 5.367e-10
0.298, 5.283e-10
0.297, 5.206e-10
0.296, 5.112e-10
0.295, 5.019e-10
0.294, 4.937e-10
0.293, 4.840e-10
0.292, 4.726e-10
0.291, 4.634e-10
0.290, 4.535e-10
0.289, 4.439e-10
0.288, 4.348e-10
0.287, 4.261e-10
0.286, 4.177e-10
0.285, 4.106e-10
0.284, 4.033e-10
0.283, 3.960e-10
0.282, 3.894e-10
0.281, 3.825e-10
0.280, 3.731e-10
0.279, 3.656e-10
0.278, 3.590e-10
0.277, 3.514e-10
0.276, 3.421e-10
0.275, 3.349e-10
0.274, 3.273e-10
0.273, 3.196e-10
0.272, 3.132e-10
0.271, 3.046e-10
0.270, 2.976e-10
0.269, 2.903e-10
0.268, 2.820e-10
0.267, 2.728e-10
0.266, 2.656e-10
0.265, 2.581e-10
0.264, 2.511e-10
0.263, 2.432e-10
0.262, 2.346e-10
0.261, 2.249e-10
0.260, 2.182e-10
0.259, 2.088e-10
0.258, 2.009e-10
0.257, 1.921e-10
0.256, 1.841e-10
0.255, 1.772e-10
0.254, 1.699e-10
0.253, 1.630e-10
0.252, 1.573e-10
0.251, 1.506e-10
0.250, 1.441e-10
0.249, 1.368e-10
0.248, 1.297e-10
0.247, 1.231e-10
0.246, 1.159e-10
0.245, 1.088e-10
0.244, 1.010e-10
0.243, 9.411e-11
0.242, 8.660e-11
0.241, 7.802e-11
0.240, 7.130e-11
0.239, 6.408e-11
0.238, 5.687e-11
0.237, 4.849e-11
0.236, 4.088e-11
0.235, 3.426e-11
0.234, 2.704e-11
0.233, 2.022e-11
0.232, 1.232e-11
0.231, 4.523e-12
0.230, -1.131e-12
0.229, -1.059e-11
0.228, -1.809e-11
0.227, -2.735e-11
0.226, -3.622e-11
0.225, -4.412e-11
0.224, -5.250e-11
0.223, -5.991e-11
0.222, -6.800e-11
0.221, -7.473e-11
0.220, -8.282e-11
0.219, -8.857e-11
0.218, -9.530e-11
0.217, -1.008e-10
0.216, -1.085e-10
0.215, -1.165e-10
0.214, -1.227e-10
0.213, -1.306e-10
0.212, -1.367e-10
0.211, -1.440e-10
0.210, -1.513e-10
0.209, -1.576e-10
0.208, -1.663e-10
0.207, -1.738e-10
0.206, -1.815e-10
0.205, -1.863e-10
0.204, -1.917e-10
0.203, -2.005e-10
0.202, -2.091e-10
0.201, -2.155e-10
0.200, -2.237e-10
0.199, -2.315e-10
0.198, -2.380e-10
0.197, -2.471e-10
0.196, -2.560e-10
0.195, -2.643e-10
0.194, -2.729e-10
0.193, -2.820e-10
0.192, -2.888e-10
0.191, -2.958e-10
0.190, -3.030e-10
0.189, -3.107e-10
0.188, -3.169e-10
0.187, -3.237e-10
0.186, -3.309e-10
0.185, -3.372e-10
0.184, -3.443e-10
0.183, -3.508e-10
0.182, -3.575e-10
0.181, -3.648e-10
0.180, -3.719e-10
0.179, -3.792e-10
0.178, -3.868e-10
0.177, -3.942e-10
0.176, -4.025e-10
0.175, -4.095e-10
0.174, -4.161e-10
0.173, -4.242e-10
0.172, -4.325e-10
0.171, -4.416e-10
0.170, -4.486e-10
0.169, -4.558e-10
0.168, -4.623e-10
0.167, -4.702e-10
0.166, -4.779e-10
0.165, -4.858e-10
0.164, -4.949e-10
0.163, -5.027e-10
0.162, -5.116e-10
0.161, -5.191e-10
0.160, -5.306e-10
0.159, -5.385e-10
0.158, -5.475e-10
0.157, -5.549e-10
0.156, -5.623e-10
0.155, -5.701e-10
0.154, -5.764e-10
0.153, -5.835e-10
0.152, -5.926e-10
0.151, -6.005e-10
0.150, -6.072e-10
0.149, -6.153e-10
0.148, -6.235e-10
0.147, -6.313e-10
0.146, -6.390e-10
0.145, -6.472e-10
0.144, -6.555e-10
0.143, -6.634e-10
0.142, -6.724e-10
0.141, -6.801e-10
0.140, -6.877e-10
0.139, -6.947e-10
0.138, -7.026e-10
0.137, -7.105e-10
0.136, -7.195e-10
0.135, -7.271e-10
0.134, -7.370e-10
0.133, -7.462e-10
0.132, -7.563e-10
0.131, -7.654e-10
0.130, -7.752e-10
0.129, -7.836e-10
0.128, -7.920e-10
0.127, -7.991e-10
0.126, -8.076e-10
0.125, -8.146e-10
0.124, -8.228e-10
0.123, -8.306e-10
0.122, -8.396e-10
0.121, -8.476e-10
0.120, -8.559e-10
0.119, -8.644e-10
0.118, -8.719e-10
0.117, -8.816e-10
0.116, -8.922e-10
0.115, -8.995e-10
0.114, -9.082e-10
0.113, -9.174e-10
0.112, -9.255e-10
0.111, -9.346e-10
0.110, -9.439e-10
0.109, -9.518e-10
0.108, -9.610e-10
0.107, -9.694e-10
0.106, -9.807e-10
0.105, -9.904e-10
0.104, -1.000e-9
0.103, -1.012e-9
0.102, -1.027e-9
0.101, -1.036e-9
0.100, -1.045e-9
0.099, -1.053e-9
0.098, -1.062e-9
0.097, -1.069e-9
0.096, -1.078e-9
0.095, -1.087e-9
0.094, -1.097e-9
0.093, -1.105e-9
0.092, -1.115e-9
0.091, -1.125e-9
0.090, -1.134e-9
0.089, -1.144e-9
0.088, -1.152e-9
0.087, -1.161e-9
0.086, -1.171e-9
0.085, -1.181e-9
0.084, -1.192e-9
0.083, -1.202e-9
0.082, -1.212e-9
0.081, -1.223e-9
0.080, -1.233e-9
0.079, -1.243e-9
0.078, -1.255e-9
0.077, -1.265e-9
0.076, -1.275e-9
0.075, -1.285e-9
0.074, -1.294e-9
0.073, -1.303e-9
0.072, -1.313e-9
0.071, -1.322e-9
0.070, -1.330e-9
0.069, -1.341e-9
0.068, -1.350e-9
0.067, -1.359e-9
0.066, -1.370e-9
0.065, -1.379e-9
0.064, -1.390e-9
0.063, -1.399e-9
0.062, -1.409e-9
0.061, -1.418e-9
0.060, -1.428e-9
0.059, -1.438e-9
0.058, -1.447e-9
0.057, -1.458e-9
0.056, -1.468e-9
0.055, -1.480e-9
0.054, -1.490e-9
0.053, -1.502e-9
0.052, -1.514e-9
0.051, -1.523e-9
0.050, -1.531e-9
0.049, -1.541e-9
0.048, -1.551e-9
0.047, -1.561e-9
0.046, -1.571e-9
0.045, -1.579e-9
0.044, -1.588e-9
0.043, -1.596e-9
0.042, -1.607e-9
0.041, -1.616e-9
0.040, -1.626e-9
0.039, -1.634e-9
0.038, -1.643e-9
0.037, -1.653e-9
0.036, -1.661e-9
0.035, -1.670e-9
0.034, -1.680e-9
0.033, -1.689e-9
0.032, -1.698e-9
0.031, -1.706e-9
0.030, -1.717e-9
0.029, -1.727e-9
0.028, -1.737e-9
0.027, -1.745e-9
0.026, -1.756e-9
0.025, -1.764e-9
0.024, -1.775e-9
0.023, -1.783e-9
0.022, -1.791e-9
0.021, -1.799e-9
0.020, -1.808e-9
0.019, -1.816e-9
0.018, -1.825e-9
0.017, -1.835e-9
0.016, -1.843e-9
0.015, -1.853e-9
0.014, -1.862e-9
0.013, -1.872e-9
0.012, -1.881e-9
0.011, -1.890e-9
0.010, -1.898e-9
0.009, -1.906e-9
0.008, -1.914e-9
0.007, -1.922e-9
0.006, -1.931e-9
0.005, -1.939e-9
0.004, -1.947e-9
0.003, -1.955e-9
0.002, -1.964e-9
0.001, -1.974e-9
-0.000, -1.977e-9
-0.001, -1.985e-9
-0.002, -1.996e-9
-0.003, -2.004e-9
-0.004, -2.011e-9
-0.005, -2.021e-9
-0.006, -2.029e-9
-0.007, -2.036e-9
-0.008, -2.044e-9
-0.009, -2.053e-9
-0.010, -2.059e-9
-0.011, -2.067e-9
-0.012, -2.075e-9
-0.013, -2.082e-9
-0.014, -2.092e-9
-0.015, -2.099e-9
-0.016, -2.105e-9
-0.017, -2.113e-9
-0.018, -2.120e-9
-0.019, -2.128e-9
-0.020, -2.134e-9
-0.021, -2.143e-9
-0.022, -2.149e-9
-0.023, -2.155e-9
-0.024, -2.163e-9
-0.025, -2.170e-9
-0.026, -2.178e-9
-0.027, -2.188e-9
-0.028, -2.196e-9
-0.029, -2.204e-9
-0.030, -2.212e-9
-0.031, -2.221e-9
-0.032, -2.233e-9
-0.033, -2.244e-9
-0.034, -2.254e-9
-0.035, -2.266e-9
-0.036, -2.273e-9
-0.037, -2.281e-9
-0.038, -2.296e-9
-0.039, -2.309e-9
-0.040, -2.318e-9
-0.041, -2.332e-9
-0.042, -2.343e-9
-0.043, -2.358e-9
-0.044, -2.370e-9
-0.045, -2.384e-9
-0.046, -2.398e-9
-0.047, -2.413e-9
-0.048, -2.421e-9
-0.049, -2.436e-9
-0.050, -2.451e-9
-0.051, -2.467e-9
-0.052, -2.483e-9
-0.053, -2.497e-9
-0.054, -2.511e-9
-0.055, -2.522e-9
-0.056, -2.537e-9
-0.057, -2.543e-9
-0.058, -2.544e-9
-0.059, -2.556e-9
-0.060, -2.573e-9
-0.061, -2.586e-9
-0.062, -2.591e-9
-0.063, -2.595e-9
-0.064, -2.585e-9
-0.065, -2.582e-9
-0.066, -2.597e-9
-0.067, -2.589e-9
-0.068, -2.577e-9
-0.069, -2.584e-9
-0.070, -2.574e-9
-0.071, -2.568e-9
-0.072, -2.573e-9
-0.073, -2.562e-9
-0.074, -2.551e-9
-0.075, -2.540e-9
-0.076, -2.534e-9
-0.077, -2.535e-9
-0.078, -2.547e-9
-0.079, -2.548e-9
-0.080, -2.550e-9
-0.081, -2.542e-9
-0.082, -2.532e-9
-0.083, -2.527e-9
-0.084, -2.527e-9
-0.085, -2.539e-9
-0.086, -2.546e-9
-0.087, -2.535e-9
-0.088, -2.523e-9
-0.089, -2.514e-9
-0.090, -2.518e-9
-0.091, -2.519e-9
-0.092, -2.521e-9
-0.093, -2.526e-9
-0.094, -2.538e-9
-0.095, -2.545e-9
-0.096, -2.551e-9
-0.097, -2.548e-9
-0.098, -2.556e-9
-0.099, -2.547e-9
-0.100, -2.545e-9
-0.101, -2.551e-9
-0.102, -2.554e-9
-0.103, -2.564e-9
-0.104, -2.574e-9
-0.105, -2.589e-9
-0.106, -2.578e-9
-0.107, -2.576e-9
-0.108, -2.580e-9
-0.109, -2.582e-9
-0.110, -2.586e-9
-0.111, -2.594e-9
-0.112, -2.594e-9
-0.113, -2.594e-9
-0.114, -2.596e-9
-0.115, -2.600e-9
-0.116, -2.605e-9
-0.117, -2.621e-9
-0.118, -2.610e-9
-0.119, -2.608e-9
-0.120, -2.618e-9
-0.121, -2.626e-9
-0.122, -2.627e-9
-0.123, -2.626e-9
-0.124, -2.632e-9
-0.125, -2.634e-9
-0.126, -2.635e-9
-0.127, -2.638e-9
-0.128, -2.641e-9
-0.129, -2.643e-9
-0.130, -2.646e-9
-0.131, -2.646e-9
-0.132, -2.650e-9
-0.133, -2.653e-9
-0.134, -2.660e-9
-0.135, -2.664e-9
-0.136, -2.667e-9
-0.137, -2.671e-9
-0.138, -2.671e-9
-0.139, -2.677e-9
-0.140, -2.680e-9
-0.141, -2.681e-9
-0.142, -2.684e-9
-0.143, -2.687e-9
-0.144, -2.689e-9
-0.145, -2.694e-9
-0.146, -2.698e-9
-0.147, -2.701e-9
-0.148, -2.704e-9
-0.149, -2.707e-9
-0.150, -2.713e-9
-0.151, -2.721e-9
-0.152, -2.719e-9
-0.153, -2.721e-9
-0.154, -2.726e-9
-0.155, -2.727e-9
-0.156, -2.731e-9
-0.157, -2.735e-9
-0.158, -2.738e-9
-0.159, -2.741e-9
-0.160, -2.746e-9
-0.161, -2.748e-9
-0.162, -2.750e-9
-0.163, -2.754e-9
-0.164, -2.758e-9
-0.165, -2.761e-9
-0.166, -2.764e-9
-0.167, -2.770e-9
-0.168, -2.774e-9
-0.169, -2.772e-9
-0.170, -2.772e-9
-0.171, -2.775e-9
-0.172, -2.779e-9
-0.173, -2.784e-9
-0.174, -2.785e-9
-0.175, -2.788e-9
-0.176, -2.791e-9
-0.177, -2.795e-9
-0.178, -2.799e-9
-0.179, -2.801e-9
-0.180, -2.802e-9
-0.181, -2.805e-9
-0.182, -2.810e-9
-0.183, -2.813e-9
-0.184, -2.816e-9
-0.185, -2.819e-9
-0.186, -2.822e-9
-0.187, -2.826e-9
-0.188, -2.828e-9
-0.189, -2.832e-9
-0.190, -2.835e-9
-0.191, -2.839e-9
-0.192, -2.842e-9
-0.193, -2.844e-9
-0.194, -2.848e-9
-0.195, -2.854e-9
-0.196, -2.854e-9
-0.197, -2.856e-9
-0.198, -2.859e-9
-0.199, -2.863e-9
-0.200, -2.866e-9
-0.201, -2.871e-9
-0.202, -2.873e-9
-0.203, -2.876e-9
-0.204, -2.880e-9
-0.205, -2.891e-9
-0.206, -2.886e-9
-0.207, -2.888e-9
-0.208, -2.891e-9
-0.209, -2.894e-9
-0.210, -2.896e-9
-0.211, -2.900e-9
-0.212, -2.903e-9
-0.213, -2.906e-9
-0.214, -2.908e-9
-0.215, -2.911e-9
-0.216, -2.913e-9
-0.217, -2.918e-9
-0.218, -2.921e-9
-0.219, -2.923e-9
-0.220, -2.926e-9
-0.221, -2.931e-9
-0.222, -2.934e-9
-0.223, -2.936e-9
-0.224, -2.939e-9
-0.225, -2.942e-9
-0.226, -2.945e-9
-0.227, -2.950e-9
-0.228, -2.952e-9
-0.229, -2.955e-9
-0.230, -2.958e-9
-0.231, -2.962e-9
-0.232, -2.964e-9
-0.233, -2.968e-9
-0.234, -2.972e-9
-0.235, -2.974e-9
-0.236, -2.977e-9
-0.237, -2.979e-9
-0.238, -2.983e-9
-0.239, -2.986e-9
-0.240, -2.990e-9
-0.241, -2.993e-9
-0.242, -2.995e-9
-0.243, -2.999e-9
-0.244, -3.002e-9
-0.245, -3.002e-9
-0.246, -3.007e-9
-0.247, -3.009e-9
-0.248, -3.011e-9
-0.249, -3.014e-9
-0.250, -3.016e-9
-0.251, -3.021e-9
-0.252, -3.023e-9
-0.253, -3.024e-9
-0.254, -3.028e-9
-0.255, -3.030e-9
-0.256, -3.032e-9
-0.257, -3.036e-9
-0.258, -3.039e-9
-0.259, -3.043e-9
-0.260, -3.045e-9
-0.261, -3.049e-9
-0.262, -3.052e-9
-0.263, -3.055e-9
-0.264, -3.057e-9
-0.265, -3.061e-9
-0.266, -3.062e-9
-0.267, -3.065e-9
-0.268, -3.069e-9
-0.269, -3.071e-9
-0.270, -3.072e-9
-0.271, -3.075e-9
-0.272, -3.078e-9
-0.273, -3.081e-9
-0.274, -3.085e-9
-0.275, -3.087e-9
-0.276, -3.090e-9
-0.277, -3.094e-9
-0.278, -3.097e-9
-0.279, -3.100e-9
-0.280, -3.102e-9
-0.281, -3.104e-9
-0.282, -3.105e-9
-0.283, -3.108e-9
-0.284, -3.112e-9
-0.285, -3.113e-9
-0.286, -3.115e-9
-0.287, -3.117e-9
-0.288, -3.120e-9
-0.289, -3.122e-9
-0.290, -3.124e-9
-0.291, -3.127e-9
-0.292, -3.129e-9
-0.293, -3.133e-9
-0.294, -3.136e-9
-0.295, -3.137e-9
-0.296, -3.139e-9
-0.297, -3.141e-9
-0.298, -3.144e-9
-0.299, -3.148e-9
-0.300, -3.150e-9
-0.301, -3.153e-9
-0.302, -3.155e-9
-0.303, -3.157e-9
-0.304, -3.158e-9
-0.305, -3.161e-9
-0.306, -3.164e-9
-0.307, -3.169e-9
-0.308, -3.173e-9
-0.309, -3.174e-9
-0.310, -3.175e-9
-0.311, -3.177e-9
-0.312, -3.179e-9
-0.313, -3.182e-9
-0.314, -3.184e-9
-0.315, -3.186e-9
-0.316, -3.188e-9
-0.317, -3.189e-9
-0.318, -3.192e-9
-0.319, -3.194e-9
-0.320, -3.196e-9
-0.321, -3.200e-9
-0.322, -3.200e-9
-0.323, -3.203e-9
-0.324, -3.204e-9
-0.325, -3.208e-9
-0.326, -3.210e-9
-0.327, -3.213e-9
-0.328, -3.216e-9
-0.329, -3.217e-9
-0.330, -3.219e-9
-0.331, -3.220e-9
-0.332, -3.223e-9
-0.333, -3.223e-9
-0.334, -3.225e-9
-0.335, -3.229e-9
-0.336, -3.231e-9
-0.337, -3.232e-9
-0.338, -3.235e-9
-0.339, -3.236e-9
-0.340, -3.238e-9
-0.341, -3.240e-9
-0.342, -3.242e-9
-0.343, -3.244e-9
-0.344, -3.245e-9
-0.345, -3.248e-9
-0.346, -3.248e-9
-0.347, -3.250e-9
-0.348, -3.253e-9
-0.349, -3.254e-9
-0.350, -3.255e-9
-0.351, -3.257e-9
-0.352, -3.260e-9
-0.353, -3.261e-9
-0.354, -3.262e-9
-0.355, -3.264e-9
-0.356, -3.266e-9
-0.357, -3.268e-9
-0.358, -3.269e-9
-0.359, -3.270e-9
-0.360, -3.273e-9
-0.361, -3.274e-9
-0.362, -3.275e-9
-0.363, -3.279e-9
-0.364, -3.281e-9
-0.365, -3.282e-9
-0.366, -3.285e-9
-0.367, -3.286e-9
-0.368, -3.287e-9
-0.369, -3.288e-9
-0.370, -3.289e-9
-0.371, -3.290e-9
-0.372, -3.292e-9
-0.373, -3.295e-9
-0.374, -3.297e-9
-0.375, -3.299e-9
-0.376, -3.300e-9
-0.377, -3.304e-9
-0.378, -3.305e-9
-0.379, -3.307e-9
-0.380, -3.309e-9
-0.381, -3.311e-9
-0.382, -3.312e-9
-0.383, -3.315e-9
-0.384, -3.316e-9
-0.385, -3.318e-9
-0.386, -3.320e-9
-0.387, -3.323e-9
-0.388, -3.324e-9
-0.389, -3.326e-9
-0.390, -3.327e-9
-0.391, -3.330e-9
-0.392, -3.330e-9
-0.393, -3.332e-9
-0.394, -3.334e-9
-0.395, -3.335e-9
-0.396, -3.337e-9
-0.397, -3.339e-9
-0.398, -3.342e-9
-0.399, -3.344e-9
-0.400, -3.347e-9
-0.401, -3.349e-9
-0.402, -3.349e-9
-0.403, -3.351e-9
-0.404, -3.353e-9
-0.405, -3.354e-9
-0.406, -3.356e-9
-0.407, -3.358e-9
-0.408, -3.359e-9
-0.409, -3.361e-9
-0.410, -3.362e-9
-0.411, -3.365e-9
-0.412, -3.368e-9
-0.413, -3.368e-9
-0.414, -3.369e-9
-0.415, -3.371e-9
-0.416, -3.373e-9
-0.417, -3.375e-9
-0.418, -3.377e-9
-0.419, -3.378e-9
-0.420, -3.379e-9
-0.421, -3.382e-9
-0.422, -3.385e-9
-0.423, -3.386e-9
-0.424, -3.388e-9
-0.425, -3.389e-9
-0.426, -3.392e-9
-0.427, -3.395e-9
-0.428, -3.397e-9
-0.429, -3.398e-9
-0.430, -3.399e-9
-0.431, -3.401e-9
-0.432, -3.402e-9
-0.433, -3.405e-9
-0.434, -3.406e-9
-0.435, -3.408e-9
-0.436, -3.410e-9
-0.437, -3.412e-9
-0.438, -3.415e-9
-0.439, -3.417e-9
-0.440, -3.419e-9
-0.441, -3.422e-9
-0.442, -3.422e-9
-0.443, -3.424e-9
-0.444, -3.428e-9
-0.445, -3.429e-9
-0.446, -3.432e-9
-0.447, -3.434e-9
-0.448, -3.436e-9
-0.449, -3.437e-9
-0.450, -3.440e-9
-0.451, -3.442e-9
-0.452, -3.445e-9
-0.453, -3.447e-9
-0.454, -3.451e-9
-0.455, -3.455e-9
-0.456, -3.456e-9
-0.457, -3.457e-9
-0.458, -3.459e-9
-0.459, -3.460e-9
-0.460, -3.462e-9
-0.461, -3.465e-9
-0.462, -3.468e-9
-0.463, -3.470e-9
-0.464, -3.471e-9
-0.465, -3.472e-9
-0.466, -3.475e-9
-0.467, -3.478e-9
-0.468, -3.479e-9
-0.469, -3.481e-9
-0.470, -3.484e-9
-0.471, -3.485e-9
-0.472, -3.488e-9
-0.473, -3.490e-9
-0.474, -3.490e-9
-0.475, -3.493e-9
-0.476, -3.495e-9
-0.477, -3.496e-9
-0.478, -3.500e-9
-0.479, -3.502e-9
-0.480, -3.504e-9
-0.481, -3.507e-9
-0.482, -3.508e-9
-0.483, -3.511e-9
-0.484, -3.512e-9
-0.485, -3.515e-9
-0.486, -3.518e-9
-0.487, -3.519e-9
-0.488, -3.521e-9
-0.489, -3.525e-9
-0.490, -3.528e-9
-0.491, -3.530e-9
-0.492, -3.533e-9
-0.493, -3.534e-9
-0.494, -3.537e-9
-0.495, -3.539e-9
-0.496, -3.543e-9
-0.497, -3.544e-9
-0.498, -3.547e-9
-0.499, -3.549e-9
