Nov. 20, 2024   15:48:58
Cyclic Voltammetry
File: +12 2319-1 fto cv_cells_dark_surface_2.bin
Data Source:  Experiment
Instrument Model:  CHI920C
Ref. Electrode: 
Header: 
Note: 

Init E (V) = -0.5
High E (V) = 0.5
Low E (V) = -0.5
Init P/N = P
Scan Rate (V/s) = 0.05
Segment = 2
Sample Interval (V) = 0.001
Quiet Time (sec) = 10
Sensitivity (A/V) = 1e-7

Results:

Channel 1:
Segment 1:
Ep = 0.147V
ip = 6.350e-10A
Ah = 4.734e-10C

Segment 2:

Potential/V, Current/A

-0.500, -2.113e-9
-0.499, -2.046e-9
-0.498, -1.994e-9
-0.497, -1.956e-9
-0.496, -1.927e-9
-0.495, -1.900e-9
-0.494, -1.875e-9
-0.493, -1.853e-9
-0.492, -1.832e-9
-0.491, -1.814e-9
-0.490, -1.797e-9
-0.489, -1.781e-9
-0.488, -1.766e-9
-0.487, -1.750e-9
-0.486, -1.735e-9
-0.485, -1.719e-9
-0.484, -1.706e-9
-0.483, -1.693e-9
-0.482, -1.680e-9
-0.481, -1.668e-9
-0.480, -1.656e-9
-0.479, -1.643e-9
-0.478, -1.632e-9
-0.477, -1.620e-9
-0.476, -1.610e-9
-0.475, -1.600e-9
-0.474, -1.589e-9
-0.473, -1.580e-9
-0.472, -1.568e-9
-0.471, -1.559e-9
-0.470, -1.549e-9
-0.469, -1.539e-9
-0.468, -1.528e-9
-0.467, -1.519e-9
-0.466, -1.510e-9
-0.465, -1.500e-9
-0.464, -1.489e-9
-0.463, -1.480e-9
-0.462, -1.469e-9
-0.461, -1.459e-9
-0.460, -1.450e-9
-0.459, -1.440e-9
-0.458, -1.431e-9
-0.457, -1.423e-9
-0.456, -1.414e-9
-0.455, -1.405e-9
-0.454, -1.397e-9
-0.453, -1.388e-9
-0.452, -1.380e-9
-0.451, -1.371e-9
-0.450, -1.364e-9
-0.449, -1.355e-9
-0.448, -1.347e-9
-0.447, -1.340e-9
-0.446, -1.332e-9
-0.445, -1.324e-9
-0.444, -1.317e-9
-0.443, -1.310e-9
-0.442, -1.303e-9
-0.441, -1.296e-9
-0.440, -1.289e-9
-0.439, -1.281e-9
-0.438, -1.273e-9
-0.437, -1.264e-9
-0.436, -1.255e-9
-0.435, -1.248e-9
-0.434, -1.239e-9
-0.433, -1.230e-9
-0.432, -1.223e-9
-0.431, -1.216e-9
-0.430, -1.209e-9
-0.429, -1.200e-9
-0.428, -1.193e-9
-0.427, -1.185e-9
-0.426, -1.177e-9
-0.425, -1.169e-9
-0.424, -1.163e-9
-0.423, -1.156e-9
-0.422, -1.150e-9
-0.421, -1.140e-9
-0.420, -1.134e-9
-0.419, -1.127e-9
-0.418, -1.121e-9
-0.417, -1.115e-9
-0.416, -1.107e-9
-0.415, -1.100e-9
-0.414, -1.094e-9
-0.413, -1.087e-9
-0.412, -1.081e-9
-0.411, -1.075e-9
-0.410, -1.067e-9
-0.409, -1.061e-9
-0.408, -1.054e-9
-0.407, -1.047e-9
-0.406, -1.040e-9
-0.405, -1.033e-9
-0.404, -1.025e-9
-0.403, -1.018e-9
-0.402, -1.011e-9
-0.401, -1.003e-9
-0.400, -9.952e-10
-0.399, -9.874e-10
-0.398, -9.811e-10
-0.397, -9.740e-10
-0.396, -9.666e-10
-0.395, -9.599e-10
-0.394, -9.531e-10
-0.393, -9.462e-10
-0.392, -9.403e-10
-0.391, -9.333e-10
-0.390, -9.275e-10
-0.389, -9.208e-10
-0.388, -9.137e-10
-0.387, -9.064e-10
-0.386, -9.009e-10
-0.385, -8.936e-10
-0.384, -8.872e-10
-0.383, -8.803e-10
-0.382, -8.743e-10
-0.381, -8.675e-10
-0.380, -8.600e-10
-0.379, -8.548e-10
-0.378, -8.490e-10
-0.377, -8.434e-10
-0.376, -8.383e-10
-0.375, -8.322e-10
-0.374, -8.266e-10
-0.373, -8.210e-10
-0.372, -8.149e-10
-0.371, -8.100e-10
-0.370, -8.039e-10
-0.369, -7.990e-10
-0.368, -7.941e-10
-0.367, -7.879e-10
-0.366, -7.806e-10
-0.365, -7.727e-10
-0.364, -7.656e-10
-0.363, -7.593e-10
-0.362, -7.521e-10
-0.361, -7.457e-10
-0.360, -7.391e-10
-0.359, -7.335e-10
-0.358, -7.276e-10
-0.357, -7.196e-10
-0.356, -7.140e-10
-0.355, -7.084e-10
-0.354, -7.019e-10
-0.353, -6.953e-10
-0.352, -6.896e-10
-0.351, -6.839e-10
-0.350, -6.780e-10
-0.349, -6.720e-10
-0.348, -6.664e-10
-0.347, -6.590e-10
-0.346, -6.528e-10
-0.345, -6.474e-10
-0.344, -6.393e-10
-0.343, -6.332e-10
-0.342, -6.281e-10
-0.341, -6.210e-10
-0.340, -6.151e-10
-0.339, -6.098e-10
-0.338, -6.037e-10
-0.337, -5.972e-10
-0.336, -5.920e-10
-0.335, -5.856e-10
-0.334, -5.796e-10
-0.333, -5.748e-10
-0.332, -5.687e-10
-0.331, -5.629e-10
-0.330, -5.564e-10
-0.329, -5.500e-10
-0.328, -5.431e-10
-0.327, -5.361e-10
-0.326, -5.291e-10
-0.325, -5.212e-10
-0.324, -5.151e-10
-0.323, -5.093e-10
-0.322, -5.012e-10
-0.321, -4.940e-10
-0.320, -4.880e-10
-0.319, -4.814e-10
-0.318, -4.750e-10
-0.317, -4.688e-10
-0.316, -4.633e-10
-0.315, -4.563e-10
-0.314, -4.498e-10
-0.313, -4.439e-10
-0.312, -4.377e-10
-0.311, -4.311e-10
-0.310, -4.261e-10
-0.309, -4.201e-10
-0.308, -4.143e-10
-0.307, -4.041e-10
-0.306, -3.973e-10
-0.305, -3.922e-10
-0.304, -3.861e-10
-0.303, -3.813e-10
-0.302, -3.762e-10
-0.301, -3.698e-10
-0.300, -3.643e-10
-0.299, -3.596e-10
-0.298, -3.531e-10
-0.297, -3.484e-10
-0.296, -3.419e-10
-0.295, -3.353e-10
-0.294, -3.307e-10
-0.293, -3.244e-10
-0.292, -3.192e-10
-0.291, -3.135e-10
-0.290, -3.081e-10
-0.289, -3.017e-10
-0.288, -2.954e-10
-0.287, -2.885e-10
-0.286, -2.814e-10
-0.285, -2.750e-10
-0.284, -2.686e-10
-0.283, -2.610e-10
-0.282, -2.538e-10
-0.281, -2.478e-10
-0.280, -2.414e-10
-0.279, -2.342e-10
-0.278, -2.272e-10
-0.277, -2.215e-10
-0.276, -2.150e-10
-0.275, -2.087e-10
-0.274, -2.030e-10
-0.273, -1.966e-10
-0.272, -1.901e-10
-0.271, -1.850e-10
-0.270, -1.796e-10
-0.269, -1.738e-10
-0.268, -1.681e-10
-0.267, -1.614e-10
-0.266, -1.563e-10
-0.265, -1.509e-10
-0.264, -1.449e-10
-0.263, -1.383e-10
-0.262, -1.313e-10
-0.261, -1.238e-10
-0.260, -1.180e-10
-0.259, -1.123e-10
-0.258, -1.063e-10
-0.257, -1.003e-10
-0.256, -9.501e-11
-0.255, -8.867e-11
-0.254, -8.292e-11
-0.253, -7.668e-11
-0.252, -7.132e-11
-0.251, -6.537e-11
-0.250, -5.777e-11
-0.249, -5.231e-11
-0.248, -4.587e-11
-0.247, -3.837e-11
-0.246, -3.184e-11
-0.245, -2.384e-11
-0.244, -1.605e-11
-0.243, -1.156e-11
-0.242, -3.763e-12
-0.241, 2.671e-12
-0.240, 7.935e-12
-0.239, 1.554e-11
-0.238, 2.178e-11
-0.237, 2.753e-11
-0.236, 3.396e-11
-0.235, 3.932e-11
-0.234, 4.547e-11
-0.233, 5.073e-11
-0.232, 5.746e-11
-0.231, 6.408e-11
-0.230, 6.925e-11
-0.229, 7.559e-11
-0.228, 8.124e-11
-0.227, 8.719e-11
-0.226, 9.391e-11
-0.225, 9.889e-11
-0.224, 1.045e-10
-0.223, 1.117e-10
-0.222, 1.168e-10
-0.221, 1.234e-10
-0.220, 1.283e-10
-0.219, 1.347e-10
-0.218, 1.415e-10
-0.217, 1.450e-10
-0.216, 1.512e-10
-0.215, 1.574e-10
-0.214, 1.628e-10
-0.213, 1.688e-10
-0.212, 1.741e-10
-0.211, 1.815e-10
-0.210, 1.869e-10
-0.209, 1.944e-10
-0.208, 1.993e-10
-0.207, 2.066e-10
-0.206, 2.129e-10
-0.205, 2.189e-10
-0.204, 2.239e-10
-0.203, 2.310e-10
-0.202, 2.395e-10
-0.201, 2.445e-10
-0.200, 2.516e-10
-0.199, 2.586e-10
-0.198, 2.646e-10
-0.197, 2.721e-10
-0.196, 2.773e-10
-0.195, 2.838e-10
-0.194, 2.912e-10
-0.193, 2.975e-10
-0.192, 3.029e-10
-0.191, 3.080e-10
-0.190, 3.145e-10
-0.189, 3.212e-10
-0.188, 3.266e-10
-0.187, 3.318e-10
-0.186, 3.381e-10
-0.185, 3.445e-10
-0.184, 3.496e-10
-0.183, 3.572e-10
-0.182, 3.623e-10
-0.181, 3.683e-10
-0.180, 3.739e-10
-0.179, 3.786e-10
-0.178, 3.849e-10
-0.177, 3.909e-10
-0.176, 3.968e-10
-0.175, 4.020e-10
-0.174, 4.075e-10
-0.173, 4.122e-10
-0.172, 4.187e-10
-0.171, 4.244e-10
-0.170, 4.326e-10
-0.169, 4.393e-10
-0.168, 4.465e-10
-0.167, 4.521e-10
-0.166, 4.586e-10
-0.165, 4.668e-10
-0.164, 4.746e-10
-0.163, 4.816e-10
-0.162, 4.877e-10
-0.161, 4.956e-10
-0.160, 5.025e-10
-0.159, 5.101e-10
-0.158, 5.159e-10
-0.157, 5.216e-10
-0.156, 5.269e-10
-0.155, 5.344e-10
-0.154, 5.416e-10
-0.153, 5.461e-10
-0.152, 5.532e-10
-0.151, 5.585e-10
-0.150, 5.629e-10
-0.149, 5.698e-10
-0.148, 5.765e-10
-0.147, 5.836e-10
-0.146, 5.887e-10
-0.145, 5.944e-10
-0.144, 6.000e-10
-0.143, 6.075e-10
-0.142, 6.127e-10
-0.141, 6.187e-10
-0.140, 6.249e-10
-0.139, 6.291e-10
-0.138, 6.358e-10
-0.137, 6.409e-10
-0.136, 6.476e-10
-0.135, 6.510e-10
-0.134, 6.573e-10
-0.133, 6.623e-10
-0.132, 6.689e-10
-0.131, 6.756e-10
-0.130, 6.821e-10
-0.129, 6.879e-10
-0.128, 6.937e-10
-0.127, 6.990e-10
-0.126, 7.065e-10
-0.125, 7.124e-10
-0.124, 7.171e-10
-0.123, 7.242e-10
-0.122, 7.308e-10
-0.121, 7.361e-10
-0.120, 7.428e-10
-0.119, 7.504e-10
-0.118, 7.554e-10
-0.117, 7.620e-10
-0.116, 7.670e-10
-0.115, 7.719e-10
-0.114, 7.783e-10
-0.113, 7.837e-10
-0.112, 7.901e-10
-0.111, 7.959e-10
-0.110, 8.017e-10
-0.109, 8.074e-10
-0.108, 8.139e-10
-0.107, 8.198e-10
-0.106, 8.257e-10
-0.105, 8.313e-10
-0.104, 8.367e-10
-0.103, 8.446e-10
-0.102, 8.552e-10
-0.101, 8.598e-10
-0.100, 8.644e-10
-0.099, 8.696e-10
-0.098, 8.759e-10
-0.097, 8.814e-10
-0.096, 8.869e-10
-0.095, 8.920e-10
-0.094, 8.967e-10
-0.093, 9.031e-10
-0.092, 9.093e-10
-0.091, 9.150e-10
-0.090, 9.212e-10
-0.089, 9.266e-10
-0.088, 9.338e-10
-0.087, 9.402e-10
-0.086, 9.456e-10
-0.085, 9.519e-10
-0.084, 9.577e-10
-0.083, 9.637e-10
-0.082, 9.702e-10
-0.081, 9.761e-10
-0.080, 9.812e-10
-0.079, 9.856e-10
-0.078, 9.917e-10
-0.077, 9.991e-10
-0.076, 1.004e-9
-0.075, 1.010e-9
-0.074, 1.015e-9
-0.073, 1.020e-9
-0.072, 1.026e-9
-0.071, 1.032e-9
-0.070, 1.036e-9
-0.069, 1.044e-9
-0.068, 1.050e-9
-0.067, 1.056e-9
-0.066, 1.061e-9
-0.065, 1.067e-9
-0.064, 1.070e-9
-0.063, 1.077e-9
-0.062, 1.083e-9
-0.061, 1.089e-9
-0.060, 1.093e-9
-0.059, 1.099e-9
-0.058, 1.105e-9
-0.057, 1.110e-9
-0.056, 1.116e-9
-0.055, 1.122e-9
-0.054, 1.126e-9
-0.053, 1.131e-9
-0.052, 1.137e-9
-0.051, 1.141e-9
-0.050, 1.147e-9
-0.049, 1.154e-9
-0.048, 1.159e-9
-0.047, 1.164e-9
-0.046, 1.169e-9
-0.045, 1.175e-9
-0.044, 1.183e-9
-0.043, 1.190e-9
-0.042, 1.197e-9
-0.041, 1.203e-9
-0.040, 1.210e-9
-0.039, 1.216e-9
-0.038, 1.222e-9
-0.037, 1.228e-9
-0.036, 1.233e-9
-0.035, 1.239e-9
-0.034, 1.246e-9
-0.033, 1.252e-9
-0.032, 1.258e-9
-0.031, 1.264e-9
-0.030, 1.268e-9
-0.029, 1.274e-9
-0.028, 1.279e-9
-0.027, 1.287e-9
-0.026, 1.293e-9
-0.025, 1.297e-9
-0.024, 1.302e-9
-0.023, 1.309e-9
-0.022, 1.315e-9
-0.021, 1.319e-9
-0.020, 1.327e-9
-0.019, 1.333e-9
-0.018, 1.339e-9
-0.017, 1.344e-9
-0.016, 1.351e-9
-0.015, 1.357e-9
-0.014, 1.363e-9
-0.013, 1.369e-9
-0.012, 1.373e-9
-0.011, 1.379e-9
-0.010, 1.386e-9
-0.009, 1.392e-9
-0.008, 1.399e-9
-0.007, 1.408e-9
-0.006, 1.414e-9
-0.005, 1.422e-9
-0.004, 1.427e-9
-0.003, 1.432e-9
-0.002, 1.439e-9
-0.001, 1.445e-9
0.000, 1.449e-9
0.001, 1.455e-9
0.002, 1.463e-9
0.003, 1.469e-9
0.004, 1.475e-9
0.005, 1.481e-9
0.006, 1.488e-9
0.007, 1.493e-9
0.008, 1.499e-9
0.009, 1.505e-9
0.010, 1.510e-9
0.011, 1.517e-9
0.012, 1.524e-9
0.013, 1.530e-9
0.014, 1.536e-9
0.015, 1.544e-9
0.016, 1.550e-9
0.017, 1.557e-9
0.018, 1.563e-9
0.019, 1.568e-9
0.020, 1.573e-9
0.021, 1.581e-9
0.022, 1.588e-9
0.023, 1.593e-9
0.024, 1.600e-9
0.025, 1.607e-9
0.026, 1.613e-9
0.027, 1.619e-9
0.028, 1.624e-9
0.029, 1.630e-9
0.030, 1.636e-9
0.031, 1.642e-9
0.032, 1.650e-9
0.033, 1.658e-9
0.034, 1.663e-9
0.035, 1.670e-9
0.036, 1.677e-9
0.037, 1.684e-9
0.038, 1.690e-9
0.039, 1.697e-9
0.040, 1.705e-9
0.041, 1.711e-9
0.042, 1.717e-9
0.043, 1.723e-9
0.044, 1.730e-9
0.045, 1.737e-9
0.046, 1.745e-9
0.047, 1.750e-9
0.048, 1.756e-9
0.049, 1.762e-9
0.050, 1.769e-9
0.051, 1.774e-9
0.052, 1.780e-9
0.053, 1.789e-9
0.054, 1.796e-9
0.055, 1.800e-9
0.056, 1.807e-9
0.057, 1.813e-9
0.058, 1.820e-9
0.059, 1.829e-9
0.060, 1.836e-9
0.061, 1.841e-9
0.062, 1.848e-9
0.063, 1.854e-9
0.064, 1.862e-9
0.065, 1.869e-9
0.066, 1.875e-9
0.067, 1.880e-9
0.068, 1.888e-9
0.069, 1.895e-9
0.070, 1.902e-9
0.071, 1.910e-9
0.072, 1.917e-9
0.073, 1.923e-9
0.074, 1.930e-9
0.075, 1.940e-9
0.076, 1.946e-9
0.077, 1.953e-9
0.078, 1.960e-9
0.079, 1.967e-9
0.080, 1.973e-9
0.081, 1.979e-9
0.082, 1.987e-9
0.083, 1.993e-9
0.084, 1.999e-9
0.085, 2.007e-9
0.086, 2.013e-9
0.087, 2.019e-9
0.088, 2.026e-9
0.089, 2.033e-9
0.090, 2.039e-9
0.091, 2.047e-9
0.092, 2.054e-9
0.093, 2.061e-9
0.094, 2.068e-9
0.095, 2.075e-9
0.096, 2.083e-9
0.097, 2.089e-9
0.098, 2.095e-9
0.099, 2.102e-9
0.100, 2.108e-9
0.101, 2.115e-9
0.102, 2.124e-9
0.103, 2.136e-9
0.104, 2.142e-9
0.105, 2.149e-9
0.106, 2.157e-9
0.107, 2.166e-9
0.108, 2.177e-9
0.109, 2.187e-9
0.110, 2.197e-9
0.111, 2.209e-9
0.112, 2.221e-9
0.113, 2.236e-9
0.114, 2.250e-9
0.115, 2.262e-9
0.116, 2.279e-9
0.117, 2.302e-9
0.118, 2.327e-9
0.119, 2.352e-9
0.120, 2.370e-9
0.121, 2.391e-9
0.122, 2.423e-9
0.123, 2.435e-9
0.124, 2.458e-9
0.125, 2.464e-9
0.126, 2.479e-9
0.127, 2.505e-9
0.128, 2.533e-9
0.129, 2.536e-9
0.130, 2.548e-9
0.131, 2.566e-9
0.132, 2.574e-9
0.133, 2.588e-9
0.134, 2.610e-9
0.135, 2.644e-9
0.136, 2.669e-9
0.137, 2.692e-9
0.138, 2.722e-9
0.139, 2.749e-9
0.140, 2.776e-9
0.141, 2.793e-9
0.142, 2.809e-9
0.143, 2.831e-9
0.144, 2.848e-9
0.145, 2.863e-9
0.146, 2.873e-9
0.147, 2.878e-9
0.148, 2.875e-9
0.149, 2.876e-9
0.150, 2.877e-9
0.151, 2.864e-9
0.152, 2.858e-9
0.153, 2.844e-9
0.154, 2.836e-9
0.155, 2.826e-9
0.156, 2.811e-9
0.157, 2.795e-9
0.158, 2.772e-9
0.159, 2.760e-9
0.160, 2.746e-9
0.161, 2.733e-9
0.162, 2.716e-9
0.163, 2.702e-9
0.164, 2.684e-9
0.165, 2.670e-9
0.166, 2.657e-9
0.167, 2.641e-9
0.168, 2.631e-9
0.169, 2.623e-9
0.170, 2.613e-9
0.171, 2.607e-9
0.172, 2.599e-9
0.173, 2.593e-9
0.174, 2.586e-9
0.175, 2.585e-9
0.176, 2.587e-9
0.177, 2.583e-9
0.178, 2.571e-9
0.179, 2.564e-9
0.180, 2.562e-9
0.181, 2.560e-9
0.182, 2.559e-9
0.183, 2.556e-9
0.184, 2.556e-9
0.185, 2.555e-9
0.186, 2.554e-9
0.187, 2.554e-9
0.188, 2.555e-9
0.189, 2.554e-9
0.190, 2.554e-9
0.191, 2.555e-9
0.192, 2.556e-9
0.193, 2.555e-9
0.194, 2.557e-9
0.195, 2.558e-9
0.196, 2.560e-9
0.197, 2.562e-9
0.198, 2.563e-9
0.199, 2.565e-9
0.200, 2.569e-9
0.201, 2.570e-9
0.202, 2.571e-9
0.203, 2.573e-9
0.204, 2.575e-9
0.205, 2.573e-9
0.206, 2.576e-9
0.207, 2.579e-9
0.208, 2.580e-9
0.209, 2.583e-9
0.210, 2.585e-9
0.211, 2.589e-9
0.212, 2.591e-9
0.213, 2.594e-9
0.214, 2.596e-9
0.215, 2.598e-9
0.216, 2.602e-9
0.217, 2.602e-9
0.218, 2.605e-9
0.219, 2.610e-9
0.220, 2.613e-9
0.221, 2.615e-9
0.222, 2.617e-9
0.223, 2.620e-9
0.224, 2.623e-9
0.225, 2.627e-9
0.226, 2.631e-9
0.227, 2.634e-9
0.228, 2.638e-9
0.229, 2.642e-9
0.230, 2.645e-9
0.231, 2.648e-9
0.232, 2.650e-9
0.233, 2.653e-9
0.234, 2.656e-9
0.235, 2.661e-9
0.236, 2.664e-9
0.237, 2.668e-9
0.238, 2.671e-9
0.239, 2.674e-9
0.240, 2.676e-9
0.241, 2.681e-9
0.242, 2.686e-9
0.243, 2.688e-9
0.244, 2.691e-9
0.245, 2.695e-9
0.246, 2.697e-9
0.247, 2.700e-9
0.248, 2.704e-9
0.249, 2.708e-9
0.250, 2.712e-9
0.251, 2.716e-9
0.252, 2.718e-9
0.253, 2.720e-9
0.254, 2.723e-9
0.255, 2.725e-9
0.256, 2.730e-9
0.257, 2.733e-9
0.258, 2.737e-9
0.259, 2.741e-9
0.260, 2.745e-9
0.261, 2.747e-9
0.262, 2.751e-9
0.263, 2.755e-9
0.264, 2.757e-9
0.265, 2.762e-9
0.266, 2.766e-9
0.267, 2.769e-9
0.268, 2.773e-9
0.269, 2.776e-9
0.270, 2.780e-9
0.271, 2.783e-9
0.272, 2.785e-9
0.273, 2.788e-9
0.274, 2.791e-9
0.275, 2.793e-9
0.276, 2.798e-9
0.277, 2.801e-9
0.278, 2.804e-9
0.279, 2.806e-9
0.280, 2.810e-9
0.281, 2.813e-9
0.282, 2.816e-9
0.283, 2.821e-9
0.284, 2.825e-9
0.285, 2.826e-9
0.286, 2.829e-9
0.287, 2.832e-9
0.288, 2.836e-9
0.289, 2.838e-9
0.290, 2.843e-9
0.291, 2.848e-9
0.292, 2.850e-9
0.293, 2.853e-9
0.294, 2.858e-9
0.295, 2.862e-9
0.296, 2.865e-9
0.297, 2.869e-9
0.298, 2.872e-9
0.299, 2.875e-9
0.300, 2.879e-9
0.301, 2.883e-9
0.302, 2.888e-9
0.303, 2.893e-9
0.304, 2.898e-9
0.305, 2.900e-9
0.306, 2.905e-9
0.307, 2.909e-9
0.308, 2.915e-9
0.309, 2.917e-9
0.310, 2.919e-9
0.311, 2.922e-9
0.312, 2.927e-9
0.313, 2.931e-9
0.314, 2.935e-9
0.315, 2.938e-9
0.316, 2.941e-9
0.317, 2.944e-9
0.318, 2.948e-9
0.319, 2.953e-9
0.320, 2.957e-9
0.321, 2.960e-9
0.322, 2.963e-9
0.323, 2.967e-9
0.324, 2.971e-9
0.325, 2.975e-9
0.326, 2.980e-9
0.327, 2.984e-9
0.328, 2.986e-9
0.329, 2.990e-9
0.330, 2.994e-9
0.331, 3.001e-9
0.332, 3.004e-9
0.333, 3.007e-9
0.334, 3.012e-9
0.335, 3.017e-9
0.336, 3.020e-9
0.337, 3.024e-9
0.338, 3.028e-9
0.339, 3.034e-9
0.340, 3.039e-9
0.341, 3.043e-9
0.342, 3.048e-9
0.343, 3.049e-9
0.344, 3.053e-9
0.345, 3.057e-9
0.346, 3.060e-9
0.347, 3.065e-9
0.348, 3.070e-9
0.349, 3.073e-9
0.350, 3.076e-9
0.351, 3.079e-9
0.352, 3.083e-9
0.353, 3.087e-9
0.354, 3.092e-9
0.355, 3.096e-9
0.356, 3.101e-9
0.357, 3.105e-9
0.358, 3.109e-9
0.359, 3.115e-9
0.360, 3.118e-9
0.361, 3.123e-9
0.362, 3.125e-9
0.363, 3.130e-9
0.364, 3.136e-9
0.365, 3.141e-9
0.366, 3.147e-9
0.367, 3.153e-9
0.368, 3.158e-9
0.369, 3.162e-9
0.370, 3.168e-9
0.371, 3.173e-9
0.372, 3.179e-9
0.373, 3.183e-9
0.374, 3.189e-9
0.375, 3.194e-9
0.376, 3.198e-9
0.377, 3.201e-9
0.378, 3.208e-9
0.379, 3.212e-9
0.380, 3.219e-9
0.381, 3.222e-9
0.382, 3.226e-9
0.383, 3.231e-9
0.384, 3.235e-9
0.385, 3.241e-9
0.386, 3.245e-9
0.387, 3.250e-9
0.388, 3.253e-9
0.389, 3.256e-9
0.390, 3.263e-9
0.391, 3.270e-9
0.392, 3.274e-9
0.393, 3.280e-9
0.394, 3.283e-9
0.395, 3.288e-9
0.396, 3.294e-9
0.397, 3.298e-9
0.398, 3.302e-9
0.399, 3.308e-9
0.400, 3.312e-9
0.401, 3.317e-9
0.402, 3.322e-9
0.403, 3.327e-9
0.404, 3.332e-9
0.405, 3.335e-9
0.406, 3.341e-9
0.407, 3.346e-9
0.408, 3.352e-9
0.409, 3.358e-9
0.410, 3.357e-9
0.411, 3.364e-9
0.412, 3.371e-9
0.413, 3.377e-9
0.414, 3.383e-9
0.415, 3.389e-9
0.416, 3.396e-9
0.417, 3.403e-9
0.418, 3.407e-9
0.419, 3.411e-9
0.420, 3.417e-9
0.421, 3.422e-9
0.422, 3.426e-9
0.423, 3.431e-9
0.424, 3.436e-9
0.425, 3.442e-9
0.426, 3.447e-9
0.427, 3.454e-9
0.428, 3.458e-9
0.429, 3.463e-9
0.430, 3.470e-9
0.431, 3.478e-9
0.432, 3.482e-9
0.433, 3.486e-9
0.434, 3.490e-9
0.435, 3.496e-9
0.436, 3.502e-9
0.437, 3.509e-9
0.438, 3.515e-9
0.439, 3.520e-9
0.440, 3.526e-9
0.441, 3.533e-9
0.442, 3.537e-9
0.443, 3.544e-9
0.444, 3.550e-9
0.445, 3.553e-9
0.446, 3.559e-9
0.447, 3.565e-9
0.448, 3.570e-9
0.449, 3.574e-9
0.450, 3.581e-9
0.451, 3.584e-9
0.452, 3.589e-9
0.453, 3.595e-9
0.454, 3.600e-9
0.455, 3.608e-9
0.456, 3.616e-9
0.457, 3.624e-9
0.458, 3.629e-9
0.459, 3.636e-9
0.460, 3.643e-9
0.461, 3.649e-9
0.462, 3.656e-9
0.463, 3.663e-9
0.464, 3.670e-9
0.465, 3.678e-9
0.466, 3.684e-9
0.467, 3.688e-9
0.468, 3.694e-9
0.469, 3.699e-9
0.470, 3.706e-9
0.471, 3.713e-9
0.472, 3.720e-9
0.473, 3.726e-9
0.474, 3.731e-9
0.475, 3.737e-9
0.476, 3.742e-9
0.477, 3.748e-9
0.478, 3.753e-9
0.479, 3.761e-9
0.480, 3.769e-9
0.481, 3.775e-9
0.482, 3.780e-9
0.483, 3.787e-9
0.484, 3.793e-9
0.485, 3.800e-9
0.486, 3.806e-9
0.487, 3.811e-9
0.488, 3.818e-9
0.489, 3.822e-9
0.490, 3.830e-9
0.491, 3.837e-9
0.492, 3.845e-9
0.493, 3.853e-9
0.494, 3.861e-9
0.495, 3.868e-9
0.496, 3.876e-9
0.497, 3.883e-9
0.498, 3.890e-9
0.499, 3.896e-9
0.500, 3.873e-9
0.499, 3.738e-9
0.498, 3.623e-9
0.497, 3.543e-9
0.496, 3.478e-9
0.495, 3.416e-9
0.494, 3.355e-9
0.493, 3.304e-9
0.492, 3.255e-9
0.491, 3.208e-9
0.490, 3.162e-9
0.489, 3.115e-9
0.488, 3.076e-9
0.487, 3.039e-9
0.486, 3.000e-9
0.485, 2.962e-9
0.484, 2.928e-9
0.483, 2.894e-9
0.482, 2.859e-9
0.481, 2.827e-9
0.480, 2.797e-9
0.479, 2.767e-9
0.478, 2.734e-9
0.477, 2.705e-9
0.476, 2.673e-9
0.475, 2.643e-9
0.474, 2.614e-9
0.473, 2.589e-9
0.472, 2.564e-9
0.471, 2.539e-9
0.470, 2.513e-9
0.469, 2.488e-9
0.468, 2.464e-9
0.467, 2.440e-9
0.466, 2.416e-9
0.465, 2.392e-9
0.464, 2.370e-9
0.463, 2.348e-9
0.462, 2.325e-9
0.461, 2.304e-9
0.460, 2.282e-9
0.459, 2.260e-9
0.458, 2.239e-9
0.457, 2.221e-9
0.456, 2.200e-9
0.455, 2.180e-9
0.454, 2.161e-9
0.453, 2.138e-9
0.452, 2.119e-9
0.451, 2.103e-9
0.450, 2.085e-9
0.449, 2.067e-9
0.448, 2.051e-9
0.447, 2.034e-9
0.446, 2.016e-9
0.445, 1.997e-9
0.444, 1.981e-9
0.443, 1.964e-9
0.442, 1.948e-9
0.441, 1.930e-9
0.440, 1.914e-9
0.439, 1.896e-9
0.438, 1.881e-9
0.437, 1.865e-9
0.436, 1.849e-9
0.435, 1.834e-9
0.434, 1.817e-9
0.433, 1.801e-9
0.432, 1.786e-9
0.431, 1.771e-9
0.430, 1.756e-9
0.429, 1.741e-9
0.428, 1.727e-9
0.427, 1.712e-9
0.426, 1.697e-9
0.425, 1.682e-9
0.424, 1.666e-9
0.423, 1.651e-9
0.422, 1.638e-9
0.421, 1.625e-9
0.420, 1.611e-9
0.419, 1.599e-9
0.418, 1.586e-9
0.417, 1.572e-9
0.416, 1.559e-9
0.415, 1.545e-9
0.414, 1.532e-9
0.413, 1.518e-9
0.412, 1.505e-9
0.411, 1.493e-9
0.410, 1.483e-9
0.409, 1.476e-9
0.408, 1.461e-9
0.407, 1.447e-9
0.406, 1.434e-9
0.405, 1.421e-9
0.404, 1.407e-9
0.403, 1.393e-9
0.402, 1.381e-9
0.401, 1.369e-9
0.400, 1.358e-9
0.399, 1.345e-9
0.398, 1.331e-9
0.397, 1.320e-9
0.396, 1.308e-9
0.395, 1.296e-9
0.394, 1.284e-9
0.393, 1.273e-9
0.392, 1.262e-9
0.391, 1.251e-9
0.390, 1.239e-9
0.389, 1.227e-9
0.388, 1.215e-9
0.387, 1.205e-9
0.386, 1.194e-9
0.385, 1.182e-9
0.384, 1.170e-9
0.383, 1.159e-9
0.382, 1.148e-9
0.381, 1.138e-9
0.380, 1.128e-9
0.379, 1.119e-9
0.378, 1.110e-9
0.377, 1.099e-9
0.376, 1.089e-9
0.375, 1.078e-9
0.374, 1.068e-9
0.373, 1.058e-9
0.372, 1.048e-9
0.371, 1.037e-9
0.370, 1.028e-9
0.369, 1.018e-9
0.368, 1.009e-9
0.367, 9.978e-10
0.366, 9.888e-10
0.365, 9.784e-10
0.364, 9.691e-10
0.363, 9.597e-10
0.362, 9.495e-10
0.361, 9.399e-10
0.360, 9.286e-10
0.359, 9.177e-10
0.358, 9.066e-10
0.357, 8.963e-10
0.356, 8.867e-10
0.355, 8.774e-10
0.354, 8.678e-10
0.353, 8.578e-10
0.352, 8.491e-10
0.351, 8.377e-10
0.350, 8.278e-10
0.349, 8.185e-10
0.348, 8.088e-10
0.347, 8.002e-10
0.346, 7.906e-10
0.345, 7.811e-10
0.344, 7.727e-10
0.343, 7.636e-10
0.342, 7.544e-10
0.341, 7.463e-10
0.340, 7.365e-10
0.339, 7.271e-10
0.338, 7.182e-10
0.337, 7.098e-10
0.336, 7.004e-10
0.335, 6.912e-10
0.334, 6.813e-10
0.333, 6.727e-10
0.332, 6.637e-10
0.331, 6.551e-10
0.330, 6.470e-10
0.329, 6.380e-10
0.328, 6.286e-10
0.327, 6.206e-10
0.326, 6.125e-10
0.325, 6.041e-10
0.324, 5.954e-10
0.323, 5.864e-10
0.322, 5.775e-10
0.321, 5.688e-10
0.320, 5.608e-10
0.319, 5.512e-10
0.318, 5.421e-10
0.317, 5.338e-10
0.316, 5.256e-10
0.315, 5.157e-10
0.314, 5.071e-10
0.313, 4.987e-10
0.312, 4.891e-10
0.311, 4.783e-10
0.310, 4.681e-10
0.309, 4.575e-10
0.308, 4.477e-10
0.307, 4.344e-10
0.306, 4.266e-10
0.305, 4.202e-10
0.304, 4.130e-10
0.303, 4.053e-10
0.302, 3.959e-10
0.301, 3.891e-10
0.300, 3.814e-10
0.299, 3.735e-10
0.298, 3.663e-10
0.297, 3.594e-10
0.296, 3.521e-10
0.295, 3.438e-10
0.294, 3.362e-10
0.293, 3.273e-10
0.292, 3.193e-10
0.291, 3.126e-10
0.290, 3.045e-10
0.289, 2.964e-10
0.288, 2.894e-10
0.287, 2.816e-10
0.286, 2.747e-10
0.285, 2.666e-10
0.284, 2.601e-10
0.283, 2.512e-10
0.282, 2.431e-10
0.281, 2.354e-10
0.280, 2.266e-10
0.279, 2.164e-10
0.278, 2.080e-10
0.277, 1.999e-10
0.276, 1.919e-10
0.275, 1.847e-10
0.274, 1.758e-10
0.273, 1.689e-10
0.272, 1.624e-10
0.271, 1.559e-10
0.270, 1.501e-10
0.269, 1.427e-10
0.268, 1.379e-10
0.267, 1.298e-10
0.266, 1.234e-10
0.265, 1.158e-10
0.264, 1.096e-10
0.263, 1.007e-10
0.262, 9.187e-11
0.261, 8.621e-11
0.260, 7.919e-11
0.259, 7.101e-11
0.258, 6.350e-11
0.257, 5.590e-11
0.256, 4.742e-11
0.255, 4.079e-11
0.254, 3.416e-11
0.253, 2.675e-11
0.252, 1.993e-11
0.251, 1.261e-11
0.250, 5.108e-12
0.249, -2.398e-12
0.248, -1.039e-11
0.247, -1.770e-11
0.246, -2.638e-11
0.245, -3.613e-11
0.244, -4.324e-11
0.243, -5.007e-11
0.242, -5.806e-11
0.241, -6.635e-11
0.240, -7.317e-11
0.239, -8.009e-11
0.238, -8.672e-11
0.237, -9.325e-11
0.236, -1.003e-10
0.235, -1.052e-10
0.234, -1.131e-10
0.233, -1.194e-10
0.232, -1.265e-10
0.231, -1.341e-10
0.230, -1.400e-10
0.229, -1.467e-10
0.228, -1.538e-10
0.227, -1.607e-10
0.226, -1.677e-10
0.225, -1.740e-10
0.224, -1.822e-10
0.223, -1.894e-10
0.222, -1.967e-10
0.221, -2.034e-10
0.220, -2.097e-10
0.219, -2.168e-10
0.218, -2.233e-10
0.217, -2.306e-10
0.216, -2.374e-10
0.215, -2.448e-10
0.214, -2.534e-10
0.213, -2.624e-10
0.212, -2.698e-10
0.211, -2.768e-10
0.210, -2.849e-10
0.209, -2.923e-10
0.208, -2.993e-10
0.207, -3.069e-10
0.206, -3.143e-10
0.205, -3.183e-10
0.204, -3.236e-10
0.203, -3.312e-10
0.202, -3.372e-10
0.201, -3.428e-10
0.200, -3.506e-10
0.199, -3.559e-10
0.198, -3.627e-10
0.197, -3.698e-10
0.196, -3.773e-10
0.195, -3.828e-10
0.194, -3.909e-10
0.193, -3.981e-10
0.192, -4.036e-10
0.191, -4.105e-10
0.190, -4.181e-10
0.189, -4.255e-10
0.188, -4.312e-10
0.187, -4.386e-10
0.186, -4.458e-10
0.185, -4.526e-10
0.184, -4.602e-10
0.183, -4.671e-10
0.182, -4.729e-10
0.181, -4.813e-10
0.180, -4.884e-10
0.179, -4.960e-10
0.178, -5.035e-10
0.177, -5.101e-10
0.176, -5.180e-10
0.175, -5.254e-10
0.174, -5.341e-10
0.173, -5.424e-10
0.172, -5.498e-10
0.171, -5.586e-10
0.170, -5.661e-10
0.169, -5.728e-10
0.168, -5.796e-10
0.167, -5.864e-10
0.166, -5.930e-10
0.165, -6.007e-10
0.164, -6.069e-10
0.163, -6.121e-10
0.162, -6.202e-10
0.161, -6.260e-10
0.160, -6.331e-10
0.159, -6.392e-10
0.158, -6.470e-10
0.157, -6.552e-10
0.156, -6.621e-10
0.155, -6.694e-10
0.154, -6.761e-10
0.153, -6.832e-10
0.152, -6.907e-10
0.151, -6.980e-10
0.150, -7.063e-10
0.149, -7.138e-10
0.148, -7.204e-10
0.147, -7.274e-10
0.146, -7.342e-10
0.145, -7.418e-10
0.144, -7.513e-10
0.143, -7.596e-10
0.142, -7.676e-10
0.141, -7.762e-10
0.140, -7.833e-10
0.139, -7.911e-10
0.138, -7.996e-10
0.137, -8.055e-10
0.136, -8.131e-10
0.135, -8.199e-10
0.134, -8.259e-10
0.133, -8.336e-10
0.132, -8.408e-10
0.131, -8.469e-10
0.130, -8.549e-10
0.129, -8.617e-10
0.128, -8.687e-10
0.127, -8.776e-10
0.126, -8.846e-10
0.125, -8.934e-10
0.124, -9.016e-10
0.123, -9.089e-10
0.122, -9.178e-10
0.121, -9.252e-10
0.120, -9.330e-10
0.119, -9.409e-10
0.118, -9.481e-10
0.117, -9.566e-10
0.116, -9.673e-10
0.115, -9.740e-10
0.114, -9.831e-10
0.113, -9.940e-10
0.112, -1.004e-9
0.111, -1.012e-9
0.110, -1.022e-9
0.109, -1.031e-9
0.108, -1.039e-9
0.107, -1.047e-9
0.106, -1.054e-9
0.105, -1.062e-9
0.104, -1.070e-9
0.103, -1.080e-9
0.102, -1.092e-9
0.101, -1.098e-9
0.100, -1.106e-9
0.099, -1.113e-9
0.098, -1.121e-9
0.097, -1.132e-9
0.096, -1.142e-9
0.095, -1.149e-9
0.094, -1.157e-9
0.093, -1.166e-9
0.092, -1.175e-9
0.091, -1.184e-9
0.090, -1.192e-9
0.089, -1.201e-9
0.088, -1.210e-9
0.087, -1.220e-9
0.086, -1.228e-9
0.085, -1.239e-9
0.084, -1.249e-9
0.083, -1.259e-9
0.082, -1.269e-9
0.081, -1.279e-9
0.080, -1.288e-9
0.079, -1.297e-9
0.078, -1.305e-9
0.077, -1.313e-9
0.076, -1.322e-9
0.075, -1.331e-9
0.074, -1.340e-9
0.073, -1.347e-9
0.072, -1.356e-9
0.071, -1.366e-9
0.070, -1.376e-9
0.069, -1.385e-9
0.068, -1.394e-9
0.067, -1.403e-9
0.066, -1.412e-9
0.065, -1.422e-9
0.064, -1.429e-9
0.063, -1.438e-9
0.062, -1.449e-9
0.061, -1.459e-9
0.060, -1.470e-9
0.059, -1.482e-9
0.058, -1.492e-9
0.057, -1.503e-9
0.056, -1.513e-9
0.055, -1.523e-9
0.054, -1.531e-9
0.053, -1.541e-9
0.052, -1.549e-9
0.051, -1.558e-9
0.050, -1.567e-9
0.049, -1.576e-9
0.048, -1.584e-9
0.047, -1.593e-9
0.046, -1.603e-9
0.045, -1.613e-9
0.044, -1.623e-9
0.043, -1.632e-9
0.042, -1.641e-9
0.041, -1.651e-9
0.040, -1.659e-9
0.039, -1.668e-9
0.038, -1.675e-9
0.037, -1.684e-9
0.036, -1.694e-9
0.035, -1.701e-9
0.034, -1.710e-9
0.033, -1.721e-9
0.032, -1.732e-9
0.031, -1.741e-9
0.030, -1.753e-9
0.029, -1.762e-9
0.028, -1.771e-9
0.027, -1.777e-9
0.026, -1.787e-9
0.025, -1.796e-9
0.024, -1.804e-9
0.023, -1.813e-9
0.022, -1.823e-9
0.021, -1.832e-9
0.020, -1.841e-9
0.019, -1.851e-9
0.018, -1.861e-9
0.017, -1.869e-9
0.016, -1.877e-9
0.015, -1.887e-9
0.014, -1.897e-9
0.013, -1.905e-9
0.012, -1.913e-9
0.011, -1.921e-9
0.010, -1.930e-9
0.009, -1.938e-9
0.008, -1.946e-9
0.007, -1.955e-9
0.006, -1.962e-9
0.005, -1.971e-9
0.004, -1.980e-9
0.003, -1.988e-9
0.002, -1.998e-9
0.001, -2.006e-9
-0.000, -2.011e-9
-0.001, -2.017e-9
-0.002, -2.027e-9
-0.003, -2.036e-9
-0.004, -2.044e-9
-0.005, -2.053e-9
-0.006, -2.061e-9
-0.007, -2.069e-9
-0.008, -2.077e-9
-0.009, -2.086e-9
-0.010, -2.093e-9
-0.011, -2.103e-9
-0.012, -2.112e-9
-0.013, -2.118e-9
-0.014, -2.127e-9
-0.015, -2.134e-9
-0.016, -2.140e-9
-0.017, -2.149e-9
-0.018, -2.156e-9
-0.019, -2.163e-9
-0.020, -2.171e-9
-0.021, -2.178e-9
-0.022, -2.186e-9
-0.023, -2.192e-9
-0.024, -2.201e-9
-0.025, -2.211e-9
-0.026, -2.219e-9
-0.027, -2.227e-9
-0.028, -2.236e-9
-0.029, -2.244e-9
-0.030, -2.252e-9
-0.031, -2.259e-9
-0.032, -2.267e-9
-0.033, -2.274e-9
-0.034, -2.280e-9
-0.035, -2.287e-9
-0.036, -2.293e-9
-0.037, -2.302e-9
-0.038, -2.309e-9
-0.039, -2.318e-9
-0.040, -2.327e-9
-0.041, -2.335e-9
-0.042, -2.345e-9
-0.043, -2.356e-9
-0.044, -2.364e-9
-0.045, -2.373e-9
-0.046, -2.383e-9
-0.047, -2.394e-9
-0.048, -2.405e-9
-0.049, -2.412e-9
-0.050, -2.421e-9
-0.051, -2.432e-9
-0.052, -2.440e-9
-0.053, -2.452e-9
-0.054, -2.467e-9
-0.055, -2.480e-9
-0.056, -2.493e-9
-0.057, -2.504e-9
-0.058, -2.505e-9
-0.059, -2.523e-9
-0.060, -2.538e-9
-0.061, -2.541e-9
-0.062, -2.546e-9
-0.063, -2.549e-9
-0.064, -2.549e-9
-0.065, -2.553e-9
-0.066, -2.564e-9
-0.067, -2.569e-9
-0.068, -2.560e-9
-0.069, -2.568e-9
-0.070, -2.577e-9
-0.071, -2.568e-9
-0.072, -2.580e-9
-0.073, -2.582e-9
-0.074, -2.580e-9
-0.075, -2.578e-9
-0.076, -2.588e-9
-0.077, -2.592e-9
-0.078, -2.580e-9
-0.079, -2.575e-9
-0.080, -2.579e-9
-0.081, -2.582e-9
-0.082, -2.579e-9
-0.083, -2.580e-9
-0.084, -2.582e-9
-0.085, -2.584e-9
-0.086, -2.586e-9
-0.087, -2.588e-9
-0.088, -2.591e-9
-0.089, -2.593e-9
-0.090, -2.601e-9
-0.091, -2.617e-9
-0.092, -2.610e-9
-0.093, -2.615e-9
-0.094, -2.619e-9
-0.095, -2.624e-9
-0.096, -2.630e-9
-0.097, -2.630e-9
-0.098, -2.638e-9
-0.099, -2.637e-9
-0.100, -2.639e-9
-0.101, -2.644e-9
-0.102, -2.649e-9
-0.103, -2.661e-9
-0.104, -2.662e-9
-0.105, -2.661e-9
-0.106, -2.666e-9
-0.107, -2.678e-9
-0.108, -2.682e-9
-0.109, -2.691e-9
-0.110, -2.690e-9
-0.111, -2.692e-9
-0.112, -2.693e-9
-0.113, -2.697e-9
-0.114, -2.700e-9
-0.115, -2.704e-9
-0.116, -2.707e-9
-0.117, -2.713e-9
-0.118, -2.720e-9
-0.119, -2.719e-9
-0.120, -2.724e-9
-0.121, -2.728e-9
-0.122, -2.733e-9
-0.123, -2.742e-9
-0.124, -2.746e-9
-0.125, -2.752e-9
-0.126, -2.760e-9
-0.127, -2.759e-9
-0.128, -2.757e-9
-0.129, -2.761e-9
-0.130, -2.764e-9
-0.131, -2.767e-9
-0.132, -2.775e-9
-0.133, -2.777e-9
-0.134, -2.777e-9
-0.135, -2.782e-9
-0.136, -2.786e-9
-0.137, -2.789e-9
-0.138, -2.792e-9
-0.139, -2.795e-9
-0.140, -2.799e-9
-0.141, -2.803e-9
-0.142, -2.807e-9
-0.143, -2.811e-9
-0.144, -2.815e-9
-0.145, -2.820e-9
-0.146, -2.823e-9
-0.147, -2.829e-9
-0.148, -2.834e-9
-0.149, -2.839e-9
-0.150, -2.841e-9
-0.151, -2.847e-9
-0.152, -2.850e-9
-0.153, -2.853e-9
-0.154, -2.857e-9
-0.155, -2.861e-9
-0.156, -2.862e-9
-0.157, -2.865e-9
-0.158, -2.867e-9
-0.159, -2.870e-9
-0.160, -2.877e-9
-0.161, -2.878e-9
-0.162, -2.882e-9
-0.163, -2.885e-9
-0.164, -2.887e-9
-0.165, -2.891e-9
-0.166, -2.894e-9
-0.167, -2.896e-9
-0.168, -2.900e-9
-0.169, -2.903e-9
-0.170, -2.906e-9
-0.171, -2.911e-9
-0.172, -2.915e-9
-0.173, -2.919e-9
-0.174, -2.922e-9
-0.175, -2.925e-9
-0.176, -2.928e-9
-0.177, -2.932e-9
-0.178, -2.935e-9
-0.179, -2.938e-9
-0.180, -2.942e-9
-0.181, -2.947e-9
-0.182, -2.949e-9
-0.183, -2.953e-9
-0.184, -2.956e-9
-0.185, -2.960e-9
-0.186, -2.964e-9
-0.187, -2.967e-9
-0.188, -2.969e-9
-0.189, -2.972e-9
-0.190, -2.976e-9
-0.191, -2.980e-9
-0.192, -2.983e-9
-0.193, -2.988e-9
-0.194, -2.992e-9
-0.195, -2.994e-9
-0.196, -2.996e-9
-0.197, -2.998e-9
-0.198, -3.004e-9
-0.199, -3.007e-9
-0.200, -3.011e-9
-0.201, -3.014e-9
-0.202, -3.015e-9
-0.203, -3.017e-9
-0.204, -3.022e-9
-0.205, -3.020e-9
-0.206, -3.024e-9
-0.207, -3.027e-9
-0.208, -3.032e-9
-0.209, -3.033e-9
-0.210, -3.037e-9
-0.211, -3.041e-9
-0.212, -3.044e-9
-0.213, -3.047e-9
-0.214, -3.050e-9
-0.215, -3.055e-9
-0.216, -3.057e-9
-0.217, -3.060e-9
-0.218, -3.064e-9
-0.219, -3.066e-9
-0.220, -3.072e-9
-0.221, -3.074e-9
-0.222, -3.078e-9
-0.223, -3.082e-9
-0.224, -3.085e-9
-0.225, -3.088e-9
-0.226, -3.090e-9
-0.227, -3.093e-9
-0.228, -3.096e-9
-0.229, -3.098e-9
-0.230, -3.102e-9
-0.231, -3.106e-9
-0.232, -3.108e-9
-0.233, -3.111e-9
-0.234, -3.114e-9
-0.235, -3.117e-9
-0.236, -3.121e-9
-0.237, -3.124e-9
-0.238, -3.128e-9
-0.239, -3.131e-9
-0.240, -3.134e-9
-0.241, -3.138e-9
-0.242, -3.141e-9
-0.243, -3.145e-9
-0.244, -3.147e-9
-0.245, -3.152e-9
-0.246, -3.150e-9
-0.247, -3.152e-9
-0.248, -3.155e-9
-0.249, -3.159e-9
-0.250, -3.162e-9
-0.251, -3.165e-9
-0.252, -3.168e-9
-0.253, -3.170e-9
-0.254, -3.174e-9
-0.255, -3.176e-9
-0.256, -3.178e-9
-0.257, -3.183e-9
-0.258, -3.185e-9
-0.259, -3.190e-9
-0.260, -3.190e-9
-0.261, -3.192e-9
-0.262, -3.195e-9
-0.263, -3.200e-9
-0.264, -3.202e-9
-0.265, -3.206e-9
-0.266, -3.209e-9
-0.267, -3.214e-9
-0.268, -3.217e-9
-0.269, -3.220e-9
-0.270, -3.223e-9
-0.271, -3.227e-9
-0.272, -3.228e-9
-0.273, -3.231e-9
-0.274, -3.235e-9
-0.275, -3.238e-9
-0.276, -3.242e-9
-0.277, -3.243e-9
-0.278, -3.246e-9
-0.279, -3.249e-9
-0.280, -3.251e-9
-0.281, -3.252e-9
-0.282, -3.253e-9
-0.283, -3.256e-9
-0.284, -3.258e-9
-0.285, -3.260e-9
-0.286, -3.264e-9
-0.287, -3.266e-9
-0.288, -3.268e-9
-0.289, -3.271e-9
-0.290, -3.274e-9
-0.291, -3.276e-9
-0.292, -3.278e-9
-0.293, -3.281e-9
-0.294, -3.284e-9
-0.295, -3.288e-9
-0.296, -3.291e-9
-0.297, -3.294e-9
-0.298, -3.296e-9
-0.299, -3.298e-9
-0.300, -3.301e-9
-0.301, -3.305e-9
-0.302, -3.309e-9
-0.303, -3.311e-9
-0.304, -3.312e-9
-0.305, -3.314e-9
-0.306, -3.316e-9
-0.307, -3.323e-9
-0.308, -3.328e-9
-0.309, -3.328e-9
-0.310, -3.329e-9
-0.311, -3.332e-9
-0.312, -3.335e-9
-0.313, -3.339e-9
-0.314, -3.342e-9
-0.315, -3.345e-9
-0.316, -3.347e-9
-0.317, -3.349e-9
-0.318, -3.352e-9
-0.319, -3.354e-9
-0.320, -3.354e-9
-0.321, -3.357e-9
-0.322, -3.358e-9
-0.323, -3.362e-9
-0.324, -3.362e-9
-0.325, -3.365e-9
-0.326, -3.368e-9
-0.327, -3.369e-9
-0.328, -3.372e-9
-0.329, -3.375e-9
-0.330, -3.376e-9
-0.331, -3.379e-9
-0.332, -3.381e-9
-0.333, -3.382e-9
-0.334, -3.384e-9
-0.335, -3.385e-9
-0.336, -3.387e-9
-0.337, -3.389e-9
-0.338, -3.391e-9
-0.339, -3.394e-9
-0.340, -3.397e-9
-0.341, -3.400e-9
-0.342, -3.400e-9
-0.343, -3.401e-9
-0.344, -3.405e-9
-0.345, -3.407e-9
-0.346, -3.407e-9
-0.347, -3.411e-9
-0.348, -3.414e-9
-0.349, -3.415e-9
-0.350, -3.416e-9
-0.351, -3.418e-9
-0.352, -3.421e-9
-0.353, -3.423e-9
-0.354, -3.424e-9
-0.355, -3.425e-9
-0.356, -3.428e-9
-0.357, -3.430e-9
-0.358, -3.432e-9
-0.359, -3.434e-9
-0.360, -3.436e-9
-0.361, -3.439e-9
-0.362, -3.442e-9
-0.363, -3.443e-9
-0.364, -3.445e-9
-0.365, -3.445e-9
-0.366, -3.449e-9
-0.367, -3.453e-9
-0.368, -3.452e-9
-0.369, -3.453e-9
-0.370, -3.457e-9
-0.371, -3.457e-9
-0.372, -3.459e-9
-0.373, -3.460e-9
-0.374, -3.461e-9
-0.375, -3.463e-9
-0.376, -3.465e-9
-0.377, -3.468e-9
-0.378, -3.470e-9
-0.379, -3.472e-9
-0.380, -3.475e-9
-0.381, -3.477e-9
-0.382, -3.477e-9
-0.383, -3.479e-9
-0.384, -3.480e-9
-0.385, -3.482e-9
-0.386, -3.482e-9
-0.387, -3.484e-9
-0.388, -3.485e-9
-0.389, -3.487e-9
-0.390, -3.490e-9
-0.391, -3.492e-9
-0.392, -3.494e-9
-0.393, -3.496e-9
-0.394, -3.496e-9
-0.395, -3.498e-9
-0.396, -3.500e-9
-0.397, -3.499e-9
-0.398, -3.503e-9
-0.399, -3.503e-9
-0.400, -3.505e-9
-0.401, -3.507e-9
-0.402, -3.508e-9
-0.403, -3.510e-9
-0.404, -3.511e-9
-0.405, -3.513e-9
-0.406, -3.514e-9
-0.407, -3.516e-9
-0.408, -3.518e-9
-0.409, -3.522e-9
-0.410, -3.523e-9
-0.411, -3.525e-9
-0.412, -3.527e-9
-0.413, -3.528e-9
-0.414, -3.531e-9
-0.415, -3.532e-9
-0.416, -3.534e-9
-0.417, -3.536e-9
-0.418, -3.537e-9
-0.419, -3.539e-9
-0.420, -3.540e-9
-0.421, -3.543e-9
-0.422, -3.544e-9
-0.423, -3.546e-9
-0.424, -3.547e-9
-0.425, -3.550e-9
-0.426, -3.552e-9
-0.427, -3.554e-9
-0.428, -3.556e-9
-0.429, -3.559e-9
-0.430, -3.560e-9
-0.431, -3.564e-9
-0.432, -3.566e-9
-0.433, -3.569e-9
-0.434, -3.572e-9
-0.435, -3.572e-9
-0.436, -3.573e-9
-0.437, -3.576e-9
-0.438, -3.578e-9
-0.439, -3.579e-9
-0.440, -3.581e-9
-0.441, -3.584e-9
-0.442, -3.587e-9
-0.443, -3.589e-9
-0.444, -3.592e-9
-0.445, -3.595e-9
-0.446, -3.596e-9
-0.447, -3.599e-9
-0.448, -3.600e-9
-0.449, -3.603e-9
-0.450, -3.604e-9
-0.451, -3.606e-9
-0.452, -3.610e-9
-0.453, -3.611e-9
-0.454, -3.615e-9
-0.455, -3.617e-9
-0.456, -3.618e-9
-0.457, -3.621e-9
-0.458, -3.623e-9
-0.459, -3.626e-9
-0.460, -3.630e-9
-0.461, -3.632e-9
-0.462, -3.633e-9
-0.463, -3.636e-9
-0.464, -3.640e-9
-0.465, -3.642e-9
-0.466, -3.644e-9
-0.467, -3.647e-9
-0.468, -3.650e-9
-0.469, -3.651e-9
-0.470, -3.655e-9
-0.471, -3.657e-9
-0.472, -3.659e-9
-0.473, -3.662e-9
-0.474, -3.664e-9
-0.475, -3.668e-9
-0.476, -3.670e-9
-0.477, -3.673e-9
-0.478, -3.676e-9
-0.479, -3.680e-9
-0.480, -3.681e-9
-0.481, -3.684e-9
-0.482, -3.688e-9
-0.483, -3.692e-9
-0.484, -3.694e-9
-0.485, -3.697e-9
-0.486, -3.699e-9
-0.487, -3.702e-9
-0.488, -3.704e-9
-0.489, -3.708e-9
-0.490, -3.711e-9
-0.491, -3.714e-9
-0.492, -3.718e-9
-0.493, -3.719e-9
-0.494, -3.722e-9
-0.495, -3.725e-9
-0.496, -3.727e-9
-0.497, -3.730e-9
-0.498, -3.731e-9
-0.499, -3.733e-9
