Nov. 20, 2024   15:53:22
Cyclic Voltammetry
File: +12 2319-1 fto cv_cells_dark_surface_6.bin
Data Source:  Experiment
Instrument Model:  CHI920C
Ref. Electrode: 
Header: 
Note: 

Init E (V) = -0.5
High E (V) = 0.5
Low E (V) = -0.5
Init P/N = P
Scan Rate (V/s) = 0.05
Segment = 2
Sample Interval (V) = 0.001
Quiet Time (sec) = 10
Sensitivity (A/V) = 1e-7

Results:

Channel 1:
Segment 1:
Ep = 0.123V
ip = 2.121e-9A
Ah = 5.303e-10C

Segment 2:

Potential/V, Current/A

-0.500, -1.373e-9
-0.499, -1.306e-9
-0.498, -1.254e-9
-0.497, -1.212e-9
-0.496, -1.182e-9
-0.495, -1.154e-9
-0.494, -1.131e-9
-0.493, -1.109e-9
-0.492, -1.089e-9
-0.491, -1.071e-9
-0.490, -1.055e-9
-0.489, -1.040e-9
-0.488, -1.023e-9
-0.487, -1.009e-9
-0.486, -9.918e-10
-0.485, -9.772e-10
-0.484, -9.635e-10
-0.483, -9.513e-10
-0.482, -9.375e-10
-0.481, -9.260e-10
-0.480, -9.139e-10
-0.479, -9.029e-10
-0.478, -8.919e-10
-0.477, -8.811e-10
-0.476, -8.702e-10
-0.475, -8.585e-10
-0.474, -8.506e-10
-0.473, -8.416e-10
-0.472, -8.324e-10
-0.471, -8.233e-10
-0.470, -8.157e-10
-0.469, -8.067e-10
-0.468, -7.980e-10
-0.467, -7.894e-10
-0.466, -7.803e-10
-0.465, -7.715e-10
-0.464, -7.603e-10
-0.463, -7.507e-10
-0.462, -7.419e-10
-0.461, -7.336e-10
-0.460, -7.259e-10
-0.459, -7.183e-10
-0.458, -7.092e-10
-0.457, -7.014e-10
-0.456, -6.934e-10
-0.455, -6.856e-10
-0.454, -6.775e-10
-0.453, -6.692e-10
-0.452, -6.609e-10
-0.451, -6.554e-10
-0.450, -6.467e-10
-0.449, -6.397e-10
-0.448, -6.327e-10
-0.447, -6.256e-10
-0.446, -6.181e-10
-0.445, -6.114e-10
-0.444, -6.033e-10
-0.443, -5.968e-10
-0.442, -5.909e-10
-0.441, -5.841e-10
-0.440, -5.762e-10
-0.439, -5.700e-10
-0.438, -5.638e-10
-0.437, -5.565e-10
-0.436, -5.477e-10
-0.435, -5.431e-10
-0.434, -5.344e-10
-0.433, -5.265e-10
-0.432, -5.192e-10
-0.431, -5.113e-10
-0.430, -5.029e-10
-0.429, -4.960e-10
-0.428, -4.886e-10
-0.427, -4.820e-10
-0.426, -4.751e-10
-0.425, -4.687e-10
-0.424, -4.612e-10
-0.423, -4.535e-10
-0.422, -4.478e-10
-0.421, -4.405e-10
-0.420, -4.337e-10
-0.419, -4.290e-10
-0.418, -4.223e-10
-0.417, -4.158e-10
-0.416, -4.083e-10
-0.415, -4.021e-10
-0.414, -3.946e-10
-0.413, -3.884e-10
-0.412, -3.827e-10
-0.411, -3.766e-10
-0.410, -3.703e-10
-0.409, -3.641e-10
-0.408, -3.578e-10
-0.407, -3.535e-10
-0.406, -3.476e-10
-0.405, -3.412e-10
-0.404, -3.353e-10
-0.403, -3.298e-10
-0.402, -3.233e-10
-0.401, -3.178e-10
-0.400, -3.132e-10
-0.399, -3.064e-10
-0.398, -3.002e-10
-0.397, -2.940e-10
-0.396, -2.888e-10
-0.395, -2.815e-10
-0.394, -2.744e-10
-0.393, -2.674e-10
-0.392, -2.598e-10
-0.391, -2.544e-10
-0.390, -2.464e-10
-0.389, -2.384e-10
-0.388, -2.321e-10
-0.387, -2.251e-10
-0.386, -2.195e-10
-0.385, -2.137e-10
-0.384, -2.088e-10
-0.383, -2.022e-10
-0.382, -1.960e-10
-0.381, -1.906e-10
-0.380, -1.853e-10
-0.379, -1.789e-10
-0.378, -1.736e-10
-0.377, -1.676e-10
-0.376, -1.628e-10
-0.375, -1.568e-10
-0.374, -1.520e-10
-0.373, -1.453e-10
-0.372, -1.394e-10
-0.371, -1.340e-10
-0.370, -1.286e-10
-0.369, -1.218e-10
-0.368, -1.161e-10
-0.367, -1.118e-10
-0.366, -1.060e-10
-0.365, -9.968e-11
-0.364, -9.471e-11
-0.363, -8.857e-11
-0.362, -8.292e-11
-0.361, -7.853e-11
-0.360, -7.317e-11
-0.359, -6.713e-11
-0.358, -6.264e-11
-0.357, -5.562e-11
-0.356, -4.968e-11
-0.355, -4.315e-11
-0.354, -3.544e-11
-0.353, -2.921e-11
-0.352, -2.375e-11
-0.351, -1.624e-11
-0.350, -9.709e-12
-0.349, -4.543e-12
-0.348, 1.306e-12
-0.347, 7.935e-12
-0.346, 1.320e-11
-0.345, 1.846e-11
-0.344, 2.587e-11
-0.343, 3.114e-11
-0.342, 3.572e-11
-0.341, 4.176e-11
-0.340, 4.673e-11
-0.339, 5.219e-11
-0.338, 5.824e-11
-0.337, 6.555e-11
-0.336, 6.984e-11
-0.335, 7.510e-11
-0.334, 8.036e-11
-0.333, 8.670e-11
-0.332, 9.177e-11
-0.331, 9.840e-11
-0.330, 1.051e-10
-0.329, 1.091e-10
-0.328, 1.153e-10
-0.327, 1.207e-10
-0.326, 1.250e-10
-0.325, 1.311e-10
-0.324, 1.361e-10
-0.323, 1.414e-10
-0.322, 1.471e-10
-0.321, 1.516e-10
-0.320, 1.568e-10
-0.319, 1.602e-10
-0.318, 1.663e-10
-0.317, 1.718e-10
-0.316, 1.765e-10
-0.315, 1.819e-10
-0.314, 1.885e-10
-0.313, 1.943e-10
-0.312, 2.004e-10
-0.311, 2.063e-10
-0.310, 2.122e-10
-0.309, 2.184e-10
-0.308, 2.231e-10
-0.307, 2.336e-10
-0.306, 2.419e-10
-0.305, 2.456e-10
-0.304, 2.505e-10
-0.303, 2.572e-10
-0.302, 2.634e-10
-0.301, 2.686e-10
-0.300, 2.727e-10
-0.299, 2.780e-10
-0.298, 2.842e-10
-0.297, 2.891e-10
-0.296, 2.947e-10
-0.295, 2.995e-10
-0.294, 3.046e-10
-0.293, 3.091e-10
-0.292, 3.162e-10
-0.291, 3.210e-10
-0.290, 3.279e-10
-0.289, 3.341e-10
-0.288, 3.402e-10
-0.287, 3.458e-10
-0.286, 3.508e-10
-0.285, 3.567e-10
-0.284, 3.619e-10
-0.283, 3.676e-10
-0.282, 3.728e-10
-0.281, 3.778e-10
-0.280, 3.844e-10
-0.279, 3.891e-10
-0.278, 3.944e-10
-0.277, 3.984e-10
-0.276, 4.041e-10
-0.275, 4.104e-10
-0.274, 4.150e-10
-0.273, 4.199e-10
-0.272, 4.259e-10
-0.271, 4.324e-10
-0.270, 4.389e-10
-0.269, 4.444e-10
-0.268, 4.506e-10
-0.267, 4.577e-10
-0.266, 4.662e-10
-0.265, 4.729e-10
-0.264, 4.796e-10
-0.263, 4.860e-10
-0.262, 4.939e-10
-0.261, 5.003e-10
-0.260, 5.061e-10
-0.259, 5.111e-10
-0.258, 5.173e-10
-0.257, 5.231e-10
-0.256, 5.270e-10
-0.255, 5.340e-10
-0.254, 5.397e-10
-0.253, 5.453e-10
-0.252, 5.512e-10
-0.251, 5.587e-10
-0.250, 5.644e-10
-0.249, 5.692e-10
-0.248, 5.767e-10
-0.247, 5.831e-10
-0.246, 5.888e-10
-0.245, 5.944e-10
-0.244, 5.989e-10
-0.243, 6.047e-10
-0.242, 6.102e-10
-0.241, 6.162e-10
-0.240, 6.214e-10
-0.239, 6.279e-10
-0.238, 6.338e-10
-0.237, 6.388e-10
-0.236, 6.435e-10
-0.235, 6.486e-10
-0.234, 6.555e-10
-0.233, 6.607e-10
-0.232, 6.658e-10
-0.231, 6.721e-10
-0.230, 6.766e-10
-0.229, 6.837e-10
-0.228, 6.899e-10
-0.227, 6.959e-10
-0.226, 7.019e-10
-0.225, 7.080e-10
-0.224, 7.153e-10
-0.223, 7.225e-10
-0.222, 7.272e-10
-0.221, 7.318e-10
-0.220, 7.382e-10
-0.219, 7.446e-10
-0.218, 7.499e-10
-0.217, 7.555e-10
-0.216, 7.626e-10
-0.215, 7.685e-10
-0.214, 7.741e-10
-0.213, 7.793e-10
-0.212, 7.847e-10
-0.211, 7.897e-10
-0.210, 7.948e-10
-0.209, 8.003e-10
-0.208, 8.070e-10
-0.207, 8.124e-10
-0.206, 8.191e-10
-0.205, 8.245e-10
-0.204, 8.273e-10
-0.203, 8.351e-10
-0.202, 8.425e-10
-0.201, 8.498e-10
-0.200, 8.561e-10
-0.199, 8.611e-10
-0.198, 8.673e-10
-0.197, 8.745e-10
-0.196, 8.791e-10
-0.195, 8.845e-10
-0.194, 8.909e-10
-0.193, 8.971e-10
-0.192, 9.027e-10
-0.191, 9.088e-10
-0.190, 9.142e-10
-0.189, 9.207e-10
-0.188, 9.266e-10
-0.187, 9.330e-10
-0.186, 9.404e-10
-0.185, 9.470e-10
-0.184, 9.519e-10
-0.183, 9.565e-10
-0.182, 9.637e-10
-0.181, 9.711e-10
-0.180, 9.771e-10
-0.179, 9.820e-10
-0.178, 9.880e-10
-0.177, 9.922e-10
-0.176, 9.985e-10
-0.175, 1.005e-9
-0.174, 1.012e-9
-0.173, 1.016e-9
-0.172, 1.021e-9
-0.171, 1.027e-9
-0.170, 1.034e-9
-0.169, 1.039e-9
-0.168, 1.046e-9
-0.167, 1.051e-9
-0.166, 1.057e-9
-0.165, 1.063e-9
-0.164, 1.068e-9
-0.163, 1.072e-9
-0.162, 1.080e-9
-0.161, 1.085e-9
-0.160, 1.092e-9
-0.159, 1.097e-9
-0.158, 1.103e-9
-0.157, 1.108e-9
-0.156, 1.114e-9
-0.155, 1.119e-9
-0.154, 1.123e-9
-0.153, 1.129e-9
-0.152, 1.134e-9
-0.151, 1.141e-9
-0.150, 1.148e-9
-0.149, 1.151e-9
-0.148, 1.157e-9
-0.147, 1.164e-9
-0.146, 1.171e-9
-0.145, 1.176e-9
-0.144, 1.183e-9
-0.143, 1.189e-9
-0.142, 1.196e-9
-0.141, 1.202e-9
-0.140, 1.207e-9
-0.139, 1.213e-9
-0.138, 1.220e-9
-0.137, 1.224e-9
-0.136, 1.231e-9
-0.135, 1.238e-9
-0.134, 1.243e-9
-0.133, 1.249e-9
-0.132, 1.255e-9
-0.131, 1.261e-9
-0.130, 1.267e-9
-0.129, 1.272e-9
-0.128, 1.277e-9
-0.127, 1.283e-9
-0.126, 1.290e-9
-0.125, 1.295e-9
-0.124, 1.300e-9
-0.123, 1.306e-9
-0.122, 1.312e-9
-0.121, 1.319e-9
-0.120, 1.325e-9
-0.119, 1.332e-9
-0.118, 1.336e-9
-0.117, 1.342e-9
-0.116, 1.348e-9
-0.115, 1.353e-9
-0.114, 1.359e-9
-0.113, 1.365e-9
-0.112, 1.371e-9
-0.111, 1.378e-9
-0.110, 1.384e-9
-0.109, 1.391e-9
-0.108, 1.397e-9
-0.107, 1.401e-9
-0.106, 1.406e-9
-0.105, 1.411e-9
-0.104, 1.419e-9
-0.103, 1.427e-9
-0.102, 1.438e-9
-0.101, 1.443e-9
-0.100, 1.448e-9
-0.099, 1.452e-9
-0.098, 1.459e-9
-0.097, 1.464e-9
-0.096, 1.469e-9
-0.095, 1.476e-9
-0.094, 1.482e-9
-0.093, 1.486e-9
-0.092, 1.491e-9
-0.091, 1.498e-9
-0.090, 1.503e-9
-0.089, 1.509e-9
-0.088, 1.514e-9
-0.087, 1.519e-9
-0.086, 1.524e-9
-0.085, 1.531e-9
-0.084, 1.536e-9
-0.083, 1.544e-9
-0.082, 1.550e-9
-0.081, 1.556e-9
-0.080, 1.561e-9
-0.079, 1.566e-9
-0.078, 1.571e-9
-0.077, 1.577e-9
-0.076, 1.582e-9
-0.075, 1.589e-9
-0.074, 1.595e-9
-0.073, 1.599e-9
-0.072, 1.605e-9
-0.071, 1.610e-9
-0.070, 1.616e-9
-0.069, 1.621e-9
-0.068, 1.627e-9
-0.067, 1.632e-9
-0.066, 1.637e-9
-0.065, 1.643e-9
-0.064, 1.648e-9
-0.063, 1.654e-9
-0.062, 1.661e-9
-0.061, 1.667e-9
-0.060, 1.671e-9
-0.059, 1.679e-9
-0.058, 1.685e-9
-0.057, 1.692e-9
-0.056, 1.698e-9
-0.055, 1.705e-9
-0.054, 1.711e-9
-0.053, 1.717e-9
-0.052, 1.723e-9
-0.051, 1.727e-9
-0.050, 1.733e-9
-0.049, 1.738e-9
-0.048, 1.743e-9
-0.047, 1.750e-9
-0.046, 1.755e-9
-0.045, 1.762e-9
-0.044, 1.767e-9
-0.043, 1.773e-9
-0.042, 1.779e-9
-0.041, 1.785e-9
-0.040, 1.791e-9
-0.039, 1.799e-9
-0.038, 1.802e-9
-0.037, 1.808e-9
-0.036, 1.814e-9
-0.035, 1.820e-9
-0.034, 1.827e-9
-0.033, 1.832e-9
-0.032, 1.837e-9
-0.031, 1.844e-9
-0.030, 1.850e-9
-0.029, 1.856e-9
-0.028, 1.861e-9
-0.027, 1.866e-9
-0.026, 1.871e-9
-0.025, 1.876e-9
-0.024, 1.882e-9
-0.023, 1.889e-9
-0.022, 1.895e-9
-0.021, 1.901e-9
-0.020, 1.910e-9
-0.019, 1.915e-9
-0.018, 1.921e-9
-0.017, 1.927e-9
-0.016, 1.933e-9
-0.015, 1.939e-9
-0.014, 1.945e-9
-0.013, 1.951e-9
-0.012, 1.956e-9
-0.011, 1.963e-9
-0.010, 1.968e-9
-0.009, 1.973e-9
-0.008, 1.978e-9
-0.007, 1.985e-9
-0.006, 1.991e-9
-0.005, 1.996e-9
-0.004, 2.004e-9
-0.003, 2.009e-9
-0.002, 2.016e-9
-0.001, 2.021e-9
0.000, 2.026e-9
0.001, 2.029e-9
0.002, 2.036e-9
0.003, 2.043e-9
0.004, 2.047e-9
0.005, 2.054e-9
0.006, 2.060e-9
0.007, 2.067e-9
0.008, 2.072e-9
0.009, 2.079e-9
0.010, 2.082e-9
0.011, 2.088e-9
0.012, 2.094e-9
0.013, 2.100e-9
0.014, 2.104e-9
0.015, 2.111e-9
0.016, 2.115e-9
0.017, 2.121e-9
0.018, 2.127e-9
0.019, 2.135e-9
0.020, 2.142e-9
0.021, 2.148e-9
0.022, 2.154e-9
0.023, 2.162e-9
0.024, 2.168e-9
0.025, 2.175e-9
0.026, 2.181e-9
0.027, 2.188e-9
0.028, 2.193e-9
0.029, 2.200e-9
0.030, 2.206e-9
0.031, 2.213e-9
0.032, 2.220e-9
0.033, 2.226e-9
0.034, 2.230e-9
0.035, 2.236e-9
0.036, 2.243e-9
0.037, 2.249e-9
0.038, 2.255e-9
0.039, 2.261e-9
0.040, 2.268e-9
0.041, 2.275e-9
0.042, 2.279e-9
0.043, 2.286e-9
0.044, 2.294e-9
0.045, 2.301e-9
0.046, 2.307e-9
0.047, 2.312e-9
0.048, 2.319e-9
0.049, 2.326e-9
0.050, 2.333e-9
0.051, 2.339e-9
0.052, 2.346e-9
0.053, 2.353e-9
0.054, 2.358e-9
0.055, 2.364e-9
0.056, 2.370e-9
0.057, 2.378e-9
0.058, 2.384e-9
0.059, 2.390e-9
0.060, 2.397e-9
0.061, 2.402e-9
0.062, 2.410e-9
0.063, 2.416e-9
0.064, 2.421e-9
0.065, 2.430e-9
0.066, 2.435e-9
0.067, 2.442e-9
0.068, 2.448e-9
0.069, 2.456e-9
0.070, 2.463e-9
0.071, 2.471e-9
0.072, 2.478e-9
0.073, 2.484e-9
0.074, 2.491e-9
0.075, 2.499e-9
0.076, 2.506e-9
0.077, 2.512e-9
0.078, 2.520e-9
0.079, 2.526e-9
0.080, 2.534e-9
0.081, 2.540e-9
0.082, 2.548e-9
0.083, 2.555e-9
0.084, 2.562e-9
0.085, 2.569e-9
0.086, 2.575e-9
0.087, 2.580e-9
0.088, 2.589e-9
0.089, 2.597e-9
0.090, 2.603e-9
0.091, 2.611e-9
0.092, 2.620e-9
0.093, 2.626e-9
0.094, 2.635e-9
0.095, 2.644e-9
0.096, 2.655e-9
0.097, 2.665e-9
0.098, 2.675e-9
0.099, 2.687e-9
0.100, 2.700e-9
0.101, 2.716e-9
0.102, 2.734e-9
0.103, 2.760e-9
0.104, 2.782e-9
0.105, 2.810e-9
0.106, 2.840e-9
0.107, 2.887e-9
0.108, 2.941e-9
0.109, 3.011e-9
0.110, 3.090e-9
0.111, 3.186e-9
0.112, 3.299e-9
0.113, 3.438e-9
0.114, 3.591e-9
0.115, 3.766e-9
0.116, 3.947e-9
0.117, 4.128e-9
0.118, 4.332e-9
0.119, 4.501e-9
0.120, 4.632e-9
0.121, 4.734e-9
0.122, 4.803e-9
0.123, 4.820e-9
0.124, 4.796e-9
0.125, 4.786e-9
0.126, 4.711e-9
0.127, 4.627e-9
0.128, 4.516e-9
0.129, 4.412e-9
0.130, 4.300e-9
0.131, 4.192e-9
0.132, 4.075e-9
0.133, 3.977e-9
0.134, 3.863e-9
0.135, 3.751e-9
0.136, 3.640e-9
0.137, 3.544e-9
0.138, 3.462e-9
0.139, 3.376e-9
0.140, 3.302e-9
0.141, 3.240e-9
0.142, 3.190e-9
0.143, 3.144e-9
0.144, 3.104e-9
0.145, 3.078e-9
0.146, 3.061e-9
0.147, 3.047e-9
0.148, 3.036e-9
0.149, 3.025e-9
0.150, 3.016e-9
0.151, 3.007e-9
0.152, 3.002e-9
0.153, 2.998e-9
0.154, 2.997e-9
0.155, 2.994e-9
0.156, 2.990e-9
0.157, 2.989e-9
0.158, 2.991e-9
0.159, 2.991e-9
0.160, 2.992e-9
0.161, 2.996e-9
0.162, 2.998e-9
0.163, 2.997e-9
0.164, 2.998e-9
0.165, 3.000e-9
0.166, 3.002e-9
0.167, 3.003e-9
0.168, 3.006e-9
0.169, 3.008e-9
0.170, 3.013e-9
0.171, 3.015e-9
0.172, 3.017e-9
0.173, 3.018e-9
0.174, 3.021e-9
0.175, 3.024e-9
0.176, 3.029e-9
0.177, 3.029e-9
0.178, 3.032e-9
0.179, 3.033e-9
0.180, 3.036e-9
0.181, 3.037e-9
0.182, 3.040e-9
0.183, 3.043e-9
0.184, 3.046e-9
0.185, 3.049e-9
0.186, 3.053e-9
0.187, 3.055e-9
0.188, 3.058e-9
0.189, 3.061e-9
0.190, 3.064e-9
0.191, 3.065e-9
0.192, 3.068e-9
0.193, 3.071e-9
0.194, 3.074e-9
0.195, 3.077e-9
0.196, 3.080e-9
0.197, 3.083e-9
0.198, 3.086e-9
0.199, 3.088e-9
0.200, 3.091e-9
0.201, 3.093e-9
0.202, 3.095e-9
0.203, 3.098e-9
0.204, 3.100e-9
0.205, 3.100e-9
0.206, 3.104e-9
0.207, 3.106e-9
0.208, 3.109e-9
0.209, 3.110e-9
0.210, 3.113e-9
0.211, 3.115e-9
0.212, 3.119e-9
0.213, 3.124e-9
0.214, 3.127e-9
0.215, 3.130e-9
0.216, 3.135e-9
0.217, 3.139e-9
0.218, 3.141e-9
0.219, 3.144e-9
0.220, 3.146e-9
0.221, 3.149e-9
0.222, 3.152e-9
0.223, 3.155e-9
0.224, 3.159e-9
0.225, 3.160e-9
0.226, 3.164e-9
0.227, 3.167e-9
0.228, 3.169e-9
0.229, 3.173e-9
0.230, 3.175e-9
0.231, 3.177e-9
0.232, 3.181e-9
0.233, 3.184e-9
0.234, 3.187e-9
0.235, 3.189e-9
0.236, 3.192e-9
0.237, 3.195e-9
0.238, 3.198e-9
0.239, 3.201e-9
0.240, 3.204e-9
0.241, 3.206e-9
0.242, 3.206e-9
0.243, 3.210e-9
0.244, 3.212e-9
0.245, 3.214e-9
0.246, 3.217e-9
0.247, 3.218e-9
0.248, 3.222e-9
0.249, 3.227e-9
0.250, 3.229e-9
0.251, 3.231e-9
0.252, 3.235e-9
0.253, 3.236e-9
0.254, 3.241e-9
0.255, 3.244e-9
0.256, 3.245e-9
0.257, 3.249e-9
0.258, 3.249e-9
0.259, 3.253e-9
0.260, 3.257e-9
0.261, 3.259e-9
0.262, 3.261e-9
0.263, 3.264e-9
0.264, 3.267e-9
0.265, 3.269e-9
0.266, 3.270e-9
0.267, 3.274e-9
0.268, 3.276e-9
0.269, 3.280e-9
0.270, 3.283e-9
0.271, 3.285e-9
0.272, 3.288e-9
0.273, 3.292e-9
0.274, 3.294e-9
0.275, 3.296e-9
0.276, 3.299e-9
0.277, 3.301e-9
0.278, 3.305e-9
0.279, 3.308e-9
0.280, 3.311e-9
0.281, 3.314e-9
0.282, 3.316e-9
0.283, 3.320e-9
0.284, 3.322e-9
0.285, 3.325e-9
0.286, 3.327e-9
0.287, 3.331e-9
0.288, 3.334e-9
0.289, 3.337e-9
0.290, 3.340e-9
0.291, 3.342e-9
0.292, 3.345e-9
0.293, 3.348e-9
0.294, 3.352e-9
0.295, 3.354e-9
0.296, 3.358e-9
0.297, 3.362e-9
0.298, 3.365e-9
0.299, 3.369e-9
0.300, 3.373e-9
0.301, 3.377e-9
0.302, 3.381e-9
0.303, 3.385e-9
0.304, 3.389e-9
0.305, 3.391e-9
0.306, 3.394e-9
0.307, 3.399e-9
0.308, 3.406e-9
0.309, 3.409e-9
0.310, 3.414e-9
0.311, 3.416e-9
0.312, 3.419e-9
0.313, 3.424e-9
0.314, 3.428e-9
0.315, 3.431e-9
0.316, 3.434e-9
0.317, 3.437e-9
0.318, 3.442e-9
0.319, 3.445e-9
0.320, 3.449e-9
0.321, 3.452e-9
0.322, 3.455e-9
0.323, 3.459e-9
0.324, 3.464e-9
0.325, 3.467e-9
0.326, 3.473e-9
0.327, 3.476e-9
0.328, 3.480e-9
0.329, 3.484e-9
0.330, 3.489e-9
0.331, 3.492e-9
0.332, 3.496e-9
0.333, 3.500e-9
0.334, 3.504e-9
0.335, 3.509e-9
0.336, 3.515e-9
0.337, 3.519e-9
0.338, 3.521e-9
0.339, 3.525e-9
0.340, 3.529e-9
0.341, 3.533e-9
0.342, 3.537e-9
0.343, 3.541e-9
0.344, 3.546e-9
0.345, 3.551e-9
0.346, 3.553e-9
0.347, 3.557e-9
0.348, 3.561e-9
0.349, 3.567e-9
0.350, 3.570e-9
0.351, 3.574e-9
0.352, 3.578e-9
0.353, 3.582e-9
0.354, 3.585e-9
0.355, 3.590e-9
0.356, 3.595e-9
0.357, 3.599e-9
0.358, 3.605e-9
0.359, 3.609e-9
0.360, 3.614e-9
0.361, 3.619e-9
0.362, 3.625e-9
0.363, 3.632e-9
0.364, 3.637e-9
0.365, 3.642e-9
0.366, 3.647e-9
0.367, 3.653e-9
0.368, 3.656e-9
0.369, 3.662e-9
0.370, 3.667e-9
0.371, 3.672e-9
0.372, 3.678e-9
0.373, 3.684e-9
0.374, 3.689e-9
0.375, 3.692e-9
0.376, 3.697e-9
0.377, 3.702e-9
0.378, 3.708e-9
0.379, 3.713e-9
0.380, 3.717e-9
0.381, 3.722e-9
0.382, 3.727e-9
0.383, 3.734e-9
0.384, 3.737e-9
0.385, 3.741e-9
0.386, 3.749e-9
0.387, 3.754e-9
0.388, 3.760e-9
0.389, 3.765e-9
0.390, 3.770e-9
0.391, 3.775e-9
0.392, 3.779e-9
0.393, 3.784e-9
0.394, 3.790e-9
0.395, 3.796e-9
0.396, 3.800e-9
0.397, 3.804e-9
0.398, 3.809e-9
0.399, 3.814e-9
0.400, 3.818e-9
0.401, 3.823e-9
0.402, 3.829e-9
0.403, 3.835e-9
0.404, 3.840e-9
0.405, 3.846e-9
0.406, 3.852e-9
0.407, 3.857e-9
0.408, 3.864e-9
0.409, 3.869e-9
0.410, 3.868e-9
0.411, 3.877e-9
0.412, 3.884e-9
0.413, 3.890e-9
0.414, 3.895e-9
0.415, 3.900e-9
0.416, 3.907e-9
0.417, 3.912e-9
0.418, 3.918e-9
0.419, 3.924e-9
0.420, 3.929e-9
0.421, 3.936e-9
0.422, 3.942e-9
0.423, 3.948e-9
0.424, 3.953e-9
0.425, 3.961e-9
0.426, 3.966e-9
0.427, 3.971e-9
0.428, 3.976e-9
0.429, 3.983e-9
0.430, 3.989e-9
0.431, 3.997e-9
0.432, 4.005e-9
0.433, 4.010e-9
0.434, 4.016e-9
0.435, 4.023e-9
0.436, 4.028e-9
0.437, 4.033e-9
0.438, 4.040e-9
0.439, 4.045e-9
0.440, 4.049e-9
0.441, 4.055e-9
0.442, 4.060e-9
0.443, 4.067e-9
0.444, 4.073e-9
0.445, 4.078e-9
0.446, 4.085e-9
0.447, 4.092e-9
0.448, 4.098e-9
0.449, 4.104e-9
0.450, 4.113e-9
0.451, 4.120e-9
0.452, 4.126e-9
0.453, 4.137e-9
0.454, 4.143e-9
0.455, 4.149e-9
0.456, 4.156e-9
0.457, 4.164e-9
0.458, 4.171e-9
0.459, 4.180e-9
0.460, 4.186e-9
0.461, 4.191e-9
0.462, 4.202e-9
0.463, 4.205e-9
0.464, 4.209e-9
0.465, 4.217e-9
0.466, 4.224e-9
0.467, 4.231e-9
0.468, 4.239e-9
0.469, 4.245e-9
0.470, 4.252e-9
0.471, 4.258e-9
0.472, 4.265e-9
0.473, 4.271e-9
0.474, 4.277e-9
0.475, 4.285e-9
0.476, 4.292e-9
0.477, 4.298e-9
0.478, 4.304e-9
0.479, 4.310e-9
0.480, 4.316e-9
0.481, 4.325e-9
0.482, 4.333e-9
0.483, 4.340e-9
0.484, 4.346e-9
0.485, 4.353e-9
0.486, 4.360e-9
0.487, 4.367e-9
0.488, 4.375e-9
0.489, 4.383e-9
0.490, 4.390e-9
0.491, 4.399e-9
0.492, 4.408e-9
0.493, 4.416e-9
0.494, 4.424e-9
0.495, 4.431e-9
0.496, 4.438e-9
0.497, 4.446e-9
0.498, 4.453e-9
0.499, 4.459e-9
0.500, 4.431e-9
0.499, 4.281e-9
0.498, 4.163e-9
0.497, 4.076e-9
0.496, 4.010e-9
0.495, 3.945e-9
0.494, 3.884e-9
0.493, 3.830e-9
0.492, 3.781e-9
0.491, 3.733e-9
0.490, 3.686e-9
0.489, 3.638e-9
0.488, 3.593e-9
0.487, 3.555e-9
0.486, 3.517e-9
0.485, 3.479e-9
0.484, 3.441e-9
0.483, 3.406e-9
0.482, 3.368e-9
0.481, 3.334e-9
0.480, 3.303e-9
0.479, 3.270e-9
0.478, 3.240e-9
0.477, 3.209e-9
0.476, 3.178e-9
0.475, 3.144e-9
0.474, 3.113e-9
0.473, 3.086e-9
0.472, 3.060e-9
0.471, 3.035e-9
0.470, 3.008e-9
0.469, 2.981e-9
0.468, 2.956e-9
0.467, 2.932e-9
0.466, 2.907e-9
0.465, 2.883e-9
0.464, 2.860e-9
0.463, 2.838e-9
0.462, 2.815e-9
0.461, 2.794e-9
0.460, 2.769e-9
0.459, 2.748e-9
0.458, 2.726e-9
0.457, 2.705e-9
0.456, 2.682e-9
0.455, 2.658e-9
0.454, 2.634e-9
0.453, 2.615e-9
0.452, 2.596e-9
0.451, 2.577e-9
0.450, 2.558e-9
0.449, 2.540e-9
0.448, 2.522e-9
0.447, 2.503e-9
0.446, 2.486e-9
0.445, 2.467e-9
0.444, 2.448e-9
0.443, 2.430e-9
0.442, 2.412e-9
0.441, 2.394e-9
0.440, 2.376e-9
0.439, 2.359e-9
0.438, 2.342e-9
0.437, 2.325e-9
0.436, 2.307e-9
0.435, 2.291e-9
0.434, 2.273e-9
0.433, 2.257e-9
0.432, 2.241e-9
0.431, 2.225e-9
0.430, 2.209e-9
0.429, 2.195e-9
0.428, 2.177e-9
0.427, 2.160e-9
0.426, 2.144e-9
0.425, 2.129e-9
0.424, 2.115e-9
0.423, 2.101e-9
0.422, 2.088e-9
0.421, 2.074e-9
0.420, 2.061e-9
0.419, 2.047e-9
0.418, 2.031e-9
0.417, 2.017e-9
0.416, 2.002e-9
0.415, 1.988e-9
0.414, 1.976e-9
0.413, 1.962e-9
0.412, 1.948e-9
0.411, 1.933e-9
0.410, 1.921e-9
0.409, 1.912e-9
0.408, 1.894e-9
0.407, 1.880e-9
0.406, 1.867e-9
0.405, 1.853e-9
0.404, 1.839e-9
0.403, 1.825e-9
0.402, 1.810e-9
0.401, 1.798e-9
0.400, 1.786e-9
0.399, 1.773e-9
0.398, 1.761e-9
0.397, 1.748e-9
0.396, 1.736e-9
0.395, 1.724e-9
0.394, 1.711e-9
0.393, 1.699e-9
0.392, 1.685e-9
0.391, 1.671e-9
0.390, 1.658e-9
0.389, 1.645e-9
0.388, 1.634e-9
0.387, 1.623e-9
0.386, 1.611e-9
0.385, 1.601e-9
0.384, 1.591e-9
0.383, 1.579e-9
0.382, 1.567e-9
0.381, 1.556e-9
0.380, 1.544e-9
0.379, 1.534e-9
0.378, 1.520e-9
0.377, 1.509e-9
0.376, 1.498e-9
0.375, 1.487e-9
0.374, 1.477e-9
0.373, 1.466e-9
0.372, 1.454e-9
0.371, 1.443e-9
0.370, 1.431e-9
0.369, 1.419e-9
0.368, 1.408e-9
0.367, 1.396e-9
0.366, 1.385e-9
0.365, 1.374e-9
0.364, 1.362e-9
0.363, 1.352e-9
0.362, 1.341e-9
0.361, 1.331e-9
0.360, 1.320e-9
0.359, 1.310e-9
0.358, 1.300e-9
0.357, 1.289e-9
0.356, 1.278e-9
0.355, 1.268e-9
0.354, 1.257e-9
0.353, 1.247e-9
0.352, 1.237e-9
0.351, 1.226e-9
0.350, 1.217e-9
0.349, 1.205e-9
0.348, 1.195e-9
0.347, 1.183e-9
0.346, 1.172e-9
0.345, 1.162e-9
0.344, 1.151e-9
0.343, 1.142e-9
0.342, 1.134e-9
0.341, 1.124e-9
0.340, 1.115e-9
0.339, 1.107e-9
0.338, 1.098e-9
0.337, 1.090e-9
0.336, 1.080e-9
0.335, 1.068e-9
0.334, 1.059e-9
0.333, 1.048e-9
0.332, 1.040e-9
0.331, 1.030e-9
0.330, 1.022e-9
0.329, 1.014e-9
0.328, 1.005e-9
0.327, 9.954e-10
0.326, 9.855e-10
0.325, 9.771e-10
0.324, 9.673e-10
0.323, 9.567e-10
0.322, 9.464e-10
0.321, 9.368e-10
0.320, 9.284e-10
0.319, 9.180e-10
0.318, 9.093e-10
0.317, 8.993e-10
0.316, 8.905e-10
0.315, 8.818e-10
0.314, 8.718e-10
0.313, 8.628e-10
0.312, 8.543e-10
0.311, 8.446e-10
0.310, 8.373e-10
0.309, 8.271e-10
0.308, 8.174e-10
0.307, 8.045e-10
0.306, 7.961e-10
0.305, 7.884e-10
0.304, 7.805e-10
0.303, 7.731e-10
0.302, 7.644e-10
0.301, 7.556e-10
0.300, 7.467e-10
0.299, 7.383e-10
0.298, 7.298e-10
0.297, 7.215e-10
0.296, 7.125e-10
0.295, 7.029e-10
0.294, 6.957e-10
0.293, 6.845e-10
0.292, 6.760e-10
0.291, 6.693e-10
0.290, 6.598e-10
0.289, 6.514e-10
0.288, 6.433e-10
0.287, 6.352e-10
0.286, 6.278e-10
0.285, 6.193e-10
0.284, 6.116e-10
0.283, 6.025e-10
0.282, 5.930e-10
0.281, 5.850e-10
0.280, 5.765e-10
0.279, 5.685e-10
0.278, 5.598e-10
0.277, 5.523e-10
0.276, 5.430e-10
0.275, 5.351e-10
0.274, 5.275e-10
0.273, 5.187e-10
0.272, 5.118e-10
0.271, 5.025e-10
0.270, 4.928e-10
0.269, 4.833e-10
0.268, 4.738e-10
0.267, 4.635e-10
0.266, 4.553e-10
0.265, 4.456e-10
0.264, 4.351e-10
0.263, 4.263e-10
0.262, 4.176e-10
0.261, 4.110e-10
0.260, 4.028e-10
0.259, 3.967e-10
0.258, 3.890e-10
0.257, 3.801e-10
0.256, 3.740e-10
0.255, 3.677e-10
0.254, 3.609e-10
0.253, 3.517e-10
0.252, 3.433e-10
0.251, 3.364e-10
0.250, 3.278e-10
0.249, 3.193e-10
0.248, 3.125e-10
0.247, 3.053e-10
0.246, 2.972e-10
0.245, 2.892e-10
0.244, 2.816e-10
0.243, 2.742e-10
0.242, 2.665e-10
0.241, 2.575e-10
0.240, 2.496e-10
0.239, 2.420e-10
0.238, 2.329e-10
0.237, 2.246e-10
0.236, 2.150e-10
0.235, 2.048e-10
0.234, 1.961e-10
0.233, 1.890e-10
0.232, 1.807e-10
0.231, 1.738e-10
0.230, 1.671e-10
0.229, 1.607e-10
0.228, 1.533e-10
0.227, 1.472e-10
0.226, 1.407e-10
0.225, 1.324e-10
0.224, 1.250e-10
0.223, 1.181e-10
0.222, 1.105e-10
0.221, 1.023e-10
0.220, 9.460e-11
0.219, 8.680e-11
0.218, 7.832e-11
0.217, 7.120e-11
0.216, 6.252e-11
0.215, 5.521e-11
0.214, 4.800e-11
0.213, 4.079e-11
0.212, 3.260e-11
0.211, 2.480e-11
0.210, 1.768e-11
0.209, 8.325e-12
0.208, 2.340e-13
0.207, -9.222e-12
0.206, -1.741e-11
0.205, -2.423e-11
0.204, -3.047e-11
0.203, -4.051e-11
0.202, -4.997e-11
0.201, -5.728e-11
0.200, -6.713e-11
0.199, -7.551e-11
0.198, -8.194e-11
0.197, -8.896e-11
0.196, -9.754e-11
0.195, -1.042e-10
0.194, -1.126e-10
0.193, -1.206e-10
0.192, -1.290e-10
0.191, -1.368e-10
0.190, -1.441e-10
0.189, -1.525e-10
0.188, -1.600e-10
0.187, -1.671e-10
0.186, -1.752e-10
0.185, -1.837e-10
0.184, -1.919e-10
0.183, -2.001e-10
0.182, -2.067e-10
0.181, -2.160e-10
0.180, -2.252e-10
0.179, -2.316e-10
0.178, -2.406e-10
0.177, -2.495e-10
0.176, -2.589e-10
0.175, -2.700e-10
0.174, -2.774e-10
0.173, -2.872e-10
0.172, -2.977e-10
0.171, -3.057e-10
0.170, -3.144e-10
0.169, -3.220e-10
0.168, -3.287e-10
0.167, -3.369e-10
0.166, -3.442e-10
0.165, -3.522e-10
0.164, -3.608e-10
0.163, -3.684e-10
0.162, -3.764e-10
0.161, -3.850e-10
0.160, -3.933e-10
0.159, -4.011e-10
0.158, -4.103e-10
0.157, -4.193e-10
0.156, -4.286e-10
0.155, -4.362e-10
0.154, -4.441e-10
0.153, -4.515e-10
0.152, -4.616e-10
0.151, -4.705e-10
0.150, -4.786e-10
0.149, -4.894e-10
0.148, -4.997e-10
0.147, -5.101e-10
0.146, -5.192e-10
0.145, -5.288e-10
0.144, -5.404e-10
0.143, -5.496e-10
0.142, -5.588e-10
0.141, -5.670e-10
0.140, -5.760e-10
0.139, -5.842e-10
0.138, -5.932e-10
0.137, -6.012e-10
0.136, -6.102e-10
0.135, -6.199e-10
0.134, -6.292e-10
0.133, -6.374e-10
0.132, -6.476e-10
0.131, -6.554e-10
0.130, -6.654e-10
0.129, -6.756e-10
0.128, -6.842e-10
0.127, -6.937e-10
0.126, -7.034e-10
0.125, -7.132e-10
0.124, -7.218e-10
0.123, -7.312e-10
0.122, -7.437e-10
0.121, -7.545e-10
0.120, -7.643e-10
0.119, -7.761e-10
0.118, -7.842e-10
0.117, -7.951e-10
0.116, -8.049e-10
0.115, -8.121e-10
0.114, -8.221e-10
0.113, -8.309e-10
0.112, -8.398e-10
0.111, -8.492e-10
0.110, -8.578e-10
0.109, -8.672e-10
0.108, -8.780e-10
0.107, -8.882e-10
0.106, -8.988e-10
0.105, -9.078e-10
0.104, -9.181e-10
0.103, -9.301e-10
0.102, -9.436e-10
0.101, -9.520e-10
0.100, -9.618e-10
0.099, -9.715e-10
0.098, -9.826e-10
0.097, -9.942e-10
0.096, -1.006e-9
0.095, -1.018e-9
0.094, -1.028e-9
0.093, -1.039e-9
0.092, -1.048e-9
0.091, -1.058e-9
0.090, -1.068e-9
0.089, -1.077e-9
0.088, -1.089e-9
0.087, -1.098e-9
0.086, -1.108e-9
0.085, -1.120e-9
0.084, -1.130e-9
0.083, -1.141e-9
0.082, -1.152e-9
0.081, -1.162e-9
0.080, -1.171e-9
0.079, -1.183e-9
0.078, -1.192e-9
0.077, -1.201e-9
0.076, -1.213e-9
0.075, -1.224e-9
0.074, -1.236e-9
0.073, -1.246e-9
0.072, -1.259e-9
0.071, -1.270e-9
0.070, -1.281e-9
0.069, -1.291e-9
0.068, -1.301e-9
0.067, -1.310e-9
0.066, -1.318e-9
0.065, -1.329e-9
0.064, -1.338e-9
0.063, -1.347e-9
0.062, -1.358e-9
0.061, -1.369e-9
0.060, -1.378e-9
0.059, -1.388e-9
0.058, -1.400e-9
0.057, -1.409e-9
0.056, -1.420e-9
0.055, -1.430e-9
0.054, -1.440e-9
0.053, -1.450e-9
0.052, -1.461e-9
0.051, -1.470e-9
0.050, -1.481e-9
0.049, -1.494e-9
0.048, -1.504e-9
0.047, -1.515e-9
0.046, -1.525e-9
0.045, -1.536e-9
0.044, -1.546e-9
0.043, -1.555e-9
0.042, -1.565e-9
0.041, -1.573e-9
0.040, -1.584e-9
0.039, -1.593e-9
0.038, -1.601e-9
0.037, -1.611e-9
0.036, -1.621e-9
0.035, -1.629e-9
0.034, -1.638e-9
0.033, -1.647e-9
0.032, -1.657e-9
0.031, -1.666e-9
0.030, -1.674e-9
0.029, -1.684e-9
0.028, -1.693e-9
0.027, -1.702e-9
0.026, -1.710e-9
0.025, -1.720e-9
0.024, -1.729e-9
0.023, -1.739e-9
0.022, -1.748e-9
0.021, -1.758e-9
0.020, -1.769e-9
0.019, -1.778e-9
0.018, -1.785e-9
0.017, -1.792e-9
0.016, -1.800e-9
0.015, -1.808e-9
0.014, -1.817e-9
0.013, -1.826e-9
0.012, -1.833e-9
0.011, -1.842e-9
0.010, -1.851e-9
0.009, -1.858e-9
0.008, -1.868e-9
0.007, -1.876e-9
0.006, -1.884e-9
0.005, -1.893e-9
0.004, -1.901e-9
0.003, -1.908e-9
0.002, -1.918e-9
0.001, -1.925e-9
-0.000, -1.929e-9
-0.001, -1.935e-9
-0.002, -1.944e-9
-0.003, -1.951e-9
-0.004, -1.958e-9
-0.005, -1.967e-9
-0.006, -1.977e-9
-0.007, -1.985e-9
-0.008, -1.992e-9
-0.009, -1.999e-9
-0.010, -2.007e-9
-0.011, -2.015e-9
-0.012, -2.022e-9
-0.013, -2.027e-9
-0.014, -2.035e-9
-0.015, -2.043e-9
-0.016, -2.050e-9
-0.017, -2.059e-9
-0.018, -2.067e-9
-0.019, -2.076e-9
-0.020, -2.085e-9
-0.021, -2.093e-9
-0.022, -2.104e-9
-0.023, -2.116e-9
-0.024, -2.128e-9
-0.025, -2.138e-9
-0.026, -2.148e-9
-0.027, -2.159e-9
-0.028, -2.171e-9
-0.029, -2.185e-9
-0.030, -2.203e-9
-0.031, -2.217e-9
-0.032, -2.231e-9
-0.033, -2.247e-9
-0.034, -2.259e-9
-0.035, -2.275e-9
-0.036, -2.291e-9
-0.037, -2.306e-9
-0.038, -2.322e-9
-0.039, -2.340e-9
-0.040, -2.361e-9
-0.041, -2.380e-9
-0.042, -2.395e-9
-0.043, -2.414e-9
-0.044, -2.433e-9
-0.045, -2.450e-9
-0.046, -2.468e-9
-0.047, -2.480e-9
-0.048, -2.502e-9
-0.049, -2.516e-9
-0.050, -2.533e-9
-0.051, -2.552e-9
-0.052, -2.561e-9
-0.053, -2.569e-9
-0.054, -2.582e-9
-0.055, -2.582e-9
-0.056, -2.582e-9
-0.057, -2.580e-9
-0.058, -2.586e-9
-0.059, -2.598e-9
-0.060, -2.600e-9
-0.061, -2.590e-9
-0.062, -2.584e-9
-0.063, -2.579e-9
-0.064, -2.564e-9
-0.065, -2.559e-9
-0.066, -2.556e-9
-0.067, -2.547e-9
-0.068, -2.547e-9
-0.069, -2.530e-9
-0.070, -2.515e-9
-0.071, -2.500e-9
-0.072, -2.486e-9
-0.073, -2.478e-9
-0.074, -2.463e-9
-0.075, -2.461e-9
-0.076, -2.460e-9
-0.077, -2.463e-9
-0.078, -2.445e-9
-0.079, -2.431e-9
-0.080, -2.435e-9
-0.081, -2.454e-9
-0.082, -2.453e-9
-0.083, -2.440e-9
-0.084, -2.431e-9
-0.085, -2.426e-9
-0.086, -2.435e-9
-0.087, -2.442e-9
-0.088, -2.440e-9
-0.089, -2.423e-9
-0.090, -2.424e-9
-0.091, -2.438e-9
-0.092, -2.468e-9
-0.093, -2.454e-9
-0.094, -2.452e-9
-0.095, -2.456e-9
-0.096, -2.443e-9
-0.097, -2.442e-9
-0.098, -2.441e-9
-0.099, -2.444e-9
-0.100, -2.452e-9
-0.101, -2.458e-9
-0.102, -2.443e-9
-0.103, -2.449e-9
-0.104, -2.460e-9
-0.105, -2.478e-9
-0.106, -2.469e-9
-0.107, -2.465e-9
-0.108, -2.460e-9
-0.109, -2.469e-9
-0.110, -2.480e-9
-0.111, -2.467e-9
-0.112, -2.473e-9
-0.113, -2.485e-9
-0.114, -2.480e-9
-0.115, -2.470e-9
-0.116, -2.479e-9
-0.117, -2.499e-9
-0.118, -2.488e-9
-0.119, -2.483e-9
-0.120, -2.500e-9
-0.121, -2.488e-9
-0.122, -2.487e-9
-0.123, -2.484e-9
-0.124, -2.488e-9
-0.125, -2.490e-9
-0.126, -2.491e-9
-0.127, -2.492e-9
-0.128, -2.501e-9
-0.129, -2.501e-9
-0.130, -2.500e-9
-0.131, -2.518e-9
-0.132, -2.518e-9
-0.133, -2.514e-9
-0.134, -2.511e-9
-0.135, -2.513e-9
-0.136, -2.510e-9
-0.137, -2.516e-9
-0.138, -2.524e-9
-0.139, -2.527e-9
-0.140, -2.527e-9
-0.141, -2.538e-9
-0.142, -2.532e-9
-0.143, -2.530e-9
-0.144, -2.533e-9
-0.145, -2.534e-9
-0.146, -2.537e-9
-0.147, -2.538e-9
-0.148, -2.542e-9
-0.149, -2.545e-9
-0.150, -2.547e-9
-0.151, -2.547e-9
-0.152, -2.550e-9
-0.153, -2.554e-9
-0.154, -2.556e-9
-0.155, -2.560e-9
-0.156, -2.564e-9
-0.157, -2.565e-9
-0.158, -2.567e-9
-0.159, -2.572e-9
-0.160, -2.579e-9
-0.161, -2.581e-9
-0.162, -2.582e-9
-0.163, -2.583e-9
-0.164, -2.584e-9
-0.165, -2.588e-9
-0.166, -2.590e-9
-0.167, -2.591e-9
-0.168, -2.594e-9
-0.169, -2.597e-9
-0.170, -2.598e-9
-0.171, -2.601e-9
-0.172, -2.605e-9
-0.173, -2.610e-9
-0.174, -2.611e-9
-0.175, -2.612e-9
-0.176, -2.616e-9
-0.177, -2.620e-9
-0.178, -2.623e-9
-0.179, -2.627e-9
-0.180, -2.627e-9
-0.181, -2.631e-9
-0.182, -2.633e-9
-0.183, -2.636e-9
-0.184, -2.639e-9
-0.185, -2.646e-9
-0.186, -2.647e-9
-0.187, -2.650e-9
-0.188, -2.651e-9
-0.189, -2.655e-9
-0.190, -2.655e-9
-0.191, -2.659e-9
-0.192, -2.661e-9
-0.193, -2.663e-9
-0.194, -2.667e-9
-0.195, -2.671e-9
-0.196, -2.672e-9
-0.197, -2.673e-9
-0.198, -2.678e-9
-0.199, -2.681e-9
-0.200, -2.686e-9
-0.201, -2.691e-9
-0.202, -2.694e-9
-0.203, -2.694e-9
-0.204, -2.695e-9
-0.205, -2.696e-9
-0.206, -2.700e-9
-0.207, -2.708e-9
-0.208, -2.711e-9
-0.209, -2.715e-9
-0.210, -2.717e-9
-0.211, -2.723e-9
-0.212, -2.728e-9
-0.213, -2.727e-9
-0.214, -2.727e-9
-0.215, -2.730e-9
-0.216, -2.735e-9
-0.217, -2.739e-9
-0.218, -2.741e-9
-0.219, -2.748e-9
-0.220, -2.754e-9
-0.221, -2.754e-9
-0.222, -2.751e-9
-0.223, -2.753e-9
-0.224, -2.756e-9
-0.225, -2.758e-9
-0.226, -2.761e-9
-0.227, -2.764e-9
-0.228, -2.768e-9
-0.229, -2.770e-9
-0.230, -2.772e-9
-0.231, -2.774e-9
-0.232, -2.776e-9
-0.233, -2.779e-9
-0.234, -2.782e-9
-0.235, -2.784e-9
-0.236, -2.787e-9
-0.237, -2.790e-9
-0.238, -2.795e-9
-0.239, -2.798e-9
-0.240, -2.800e-9
-0.241, -2.802e-9
-0.242, -2.805e-9
-0.243, -2.809e-9
-0.244, -2.810e-9
-0.245, -2.812e-9
-0.246, -2.816e-9
-0.247, -2.818e-9
-0.248, -2.821e-9
-0.249, -2.825e-9
-0.250, -2.828e-9
-0.251, -2.833e-9
-0.252, -2.837e-9
-0.253, -2.838e-9
-0.254, -2.839e-9
-0.255, -2.843e-9
-0.256, -2.845e-9
-0.257, -2.850e-9
-0.258, -2.851e-9
-0.259, -2.855e-9
-0.260, -2.857e-9
-0.261, -2.859e-9
-0.262, -2.862e-9
-0.263, -2.866e-9
-0.264, -2.867e-9
-0.265, -2.871e-9
-0.266, -2.872e-9
-0.267, -2.876e-9
-0.268, -2.880e-9
-0.269, -2.883e-9
-0.270, -2.885e-9
-0.271, -2.885e-9
-0.272, -2.887e-9
-0.273, -2.890e-9
-0.274, -2.892e-9
-0.275, -2.894e-9
-0.276, -2.897e-9
-0.277, -2.900e-9
-0.278, -2.903e-9
-0.279, -2.905e-9
-0.280, -2.907e-9
-0.281, -2.910e-9
-0.282, -2.912e-9
-0.283, -2.914e-9
-0.284, -2.916e-9
-0.285, -2.918e-9
-0.286, -2.920e-9
-0.287, -2.924e-9
-0.288, -2.925e-9
-0.289, -2.926e-9
-0.290, -2.930e-9
-0.291, -2.931e-9
-0.292, -2.933e-9
-0.293, -2.936e-9
-0.294, -2.938e-9
-0.295, -2.938e-9
-0.296, -2.942e-9
-0.297, -2.946e-9
-0.298, -2.948e-9
-0.299, -2.950e-9
-0.300, -2.952e-9
-0.301, -2.955e-9
-0.302, -2.958e-9
-0.303, -2.959e-9
-0.304, -2.962e-9
-0.305, -2.964e-9
-0.306, -2.965e-9
-0.307, -2.970e-9
-0.308, -2.976e-9
-0.309, -2.977e-9
-0.310, -2.979e-9
-0.311, -2.980e-9
-0.312, -2.983e-9
-0.313, -2.985e-9
-0.314, -2.988e-9
-0.315, -2.989e-9
-0.316, -2.991e-9
-0.317, -2.993e-9
-0.318, -2.994e-9
-0.319, -2.995e-9
-0.320, -2.996e-9
-0.321, -2.999e-9
-0.322, -3.000e-9
-0.323, -3.000e-9
-0.324, -3.002e-9
-0.325, -3.004e-9
-0.326, -3.006e-9
-0.327, -3.007e-9
-0.328, -3.009e-9
-0.329, -3.011e-9
-0.330, -3.013e-9
-0.331, -3.016e-9
-0.332, -3.017e-9
-0.333, -3.018e-9
-0.334, -3.021e-9
-0.335, -3.021e-9
-0.336, -3.023e-9
-0.337, -3.025e-9
-0.338, -3.026e-9
-0.339, -3.029e-9
-0.340, -3.029e-9
-0.341, -3.031e-9
-0.342, -3.033e-9
-0.343, -3.034e-9
-0.344, -3.035e-9
-0.345, -3.036e-9
-0.346, -3.038e-9
-0.347, -3.041e-9
-0.348, -3.042e-9
-0.349, -3.042e-9
-0.350, -3.043e-9
-0.351, -3.045e-9
-0.352, -3.048e-9
-0.353, -3.050e-9
-0.354, -3.053e-9
-0.355, -3.056e-9
-0.356, -3.056e-9
-0.357, -3.056e-9
-0.358, -3.058e-9
-0.359, -3.059e-9
-0.360, -3.060e-9
-0.361, -3.063e-9
-0.362, -3.064e-9
-0.363, -3.065e-9
-0.364, -3.069e-9
-0.365, -3.070e-9
-0.366, -3.073e-9
-0.367, -3.073e-9
-0.368, -3.075e-9
-0.369, -3.077e-9
-0.370, -3.076e-9
-0.371, -3.079e-9
-0.372, -3.080e-9
-0.373, -3.083e-9
-0.374, -3.085e-9
-0.375, -3.087e-9
-0.376, -3.088e-9
-0.377, -3.092e-9
-0.378, -3.091e-9
-0.379, -3.092e-9
-0.380, -3.095e-9
-0.381, -3.095e-9
-0.382, -3.097e-9
-0.383, -3.098e-9
-0.384, -3.099e-9
-0.385, -3.101e-9
-0.386, -3.103e-9
-0.387, -3.104e-9
-0.388, -3.107e-9
-0.389, -3.108e-9
-0.390, -3.110e-9
-0.391, -3.112e-9
-0.392, -3.114e-9
-0.393, -3.115e-9
-0.394, -3.114e-9
-0.395, -3.117e-9
-0.396, -3.120e-9
-0.397, -3.120e-9
-0.398, -3.122e-9
-0.399, -3.124e-9
-0.400, -3.125e-9
-0.401, -3.129e-9
-0.402, -3.130e-9
-0.403, -3.131e-9
-0.404, -3.134e-9
-0.405, -3.135e-9
-0.406, -3.137e-9
-0.407, -3.137e-9
-0.408, -3.138e-9
-0.409, -3.142e-9
-0.410, -3.144e-9
-0.411, -3.145e-9
-0.412, -3.147e-9
-0.413, -3.147e-9
-0.414, -3.149e-9
-0.415, -3.151e-9
-0.416, -3.152e-9
-0.417, -3.155e-9
-0.418, -3.157e-9
-0.419, -3.158e-9
-0.420, -3.159e-9
-0.421, -3.161e-9
-0.422, -3.163e-9
-0.423, -3.165e-9
-0.424, -3.167e-9
-0.425, -3.169e-9
-0.426, -3.170e-9
-0.427, -3.173e-9
-0.428, -3.174e-9
-0.429, -3.176e-9
-0.430, -3.179e-9
-0.431, -3.182e-9
-0.432, -3.184e-9
-0.433, -3.186e-9
-0.434, -3.186e-9
-0.435, -3.188e-9
-0.436, -3.189e-9
-0.437, -3.190e-9
-0.438, -3.192e-9
-0.439, -3.196e-9
-0.440, -3.197e-9
-0.441, -3.201e-9
-0.442, -3.203e-9
-0.443, -3.204e-9
-0.444, -3.207e-9
-0.445, -3.209e-9
-0.446, -3.212e-9
-0.447, -3.215e-9
-0.448, -3.216e-9
-0.449, -3.219e-9
-0.450, -3.221e-9
-0.451, -3.224e-9
-0.452, -3.226e-9
-0.453, -3.228e-9
-0.454, -3.230e-9
-0.455, -3.233e-9
-0.456, -3.235e-9
-0.457, -3.237e-9
-0.458, -3.239e-9
-0.459, -3.240e-9
-0.460, -3.242e-9
-0.461, -3.244e-9
-0.462, -3.246e-9
-0.463, -3.248e-9
-0.464, -3.249e-9
-0.465, -3.253e-9
-0.466, -3.254e-9
-0.467, -3.258e-9
-0.468, -3.260e-9
-0.469, -3.262e-9
-0.470, -3.266e-9
-0.471, -3.267e-9
-0.472, -3.269e-9
-0.473, -3.272e-9
-0.474, -3.273e-9
-0.475, -3.274e-9
-0.476, -3.279e-9
-0.477, -3.280e-9
-0.478, -3.282e-9
-0.479, -3.285e-9
-0.480, -3.287e-9
-0.481, -3.289e-9
-0.482, -3.292e-9
-0.483, -3.293e-9
-0.484, -3.296e-9
-0.485, -3.298e-9
-0.486, -3.300e-9
-0.487, -3.304e-9
-0.488, -3.307e-9
-0.489, -3.312e-9
-0.490, -3.313e-9
-0.491, -3.314e-9
-0.492, -3.317e-9
-0.493, -3.320e-9
-0.494, -3.322e-9
-0.495, -3.324e-9
-0.496, -3.326e-9
-0.497, -3.329e-9
-0.498, -3.332e-9
-0.499, -3.334e-9
