Nov. 20, 2024   15:57:40
Cyclic Voltammetry
File: +12 2319-1 fto cv_cells_dark_surface_10.bin
Data Source:  Experiment
Instrument Model:  CHI920C
Ref. Electrode: 
Header: 
Note: 

Init E (V) = -0.5
High E (V) = 0.5
Low E (V) = -0.5
Init P/N = P
Scan Rate (V/s) = 0.05
Segment = 2
Sample Interval (V) = 0.001
Quiet Time (sec) = 10
Sensitivity (A/V) = 1e-7

Results:

Channel 1:
Segment 1:
Ep = 0.120V
ip = 2.532e-9A
Ah = 5.479e-10C

Segment 2:

Potential/V, Current/A

-0.500, -1.254e-9
-0.499, -1.179e-9
-0.498, -1.126e-9
-0.497, -1.090e-9
-0.496, -1.060e-9
-0.495, -1.034e-9
-0.494, -1.007e-9
-0.493, -9.840e-10
-0.492, -9.632e-10
-0.491, -9.445e-10
-0.490, -9.274e-10
-0.489, -9.120e-10
-0.488, -8.959e-10
-0.487, -8.812e-10
-0.486, -8.678e-10
-0.485, -8.539e-10
-0.484, -8.418e-10
-0.483, -8.301e-10
-0.482, -8.201e-10
-0.481, -8.094e-10
-0.480, -7.993e-10
-0.479, -7.872e-10
-0.478, -7.757e-10
-0.477, -7.644e-10
-0.476, -7.533e-10
-0.475, -7.425e-10
-0.474, -7.310e-10
-0.473, -7.217e-10
-0.472, -7.120e-10
-0.471, -7.010e-10
-0.470, -6.928e-10
-0.469, -6.831e-10
-0.468, -6.746e-10
-0.467, -6.654e-10
-0.466, -6.559e-10
-0.465, -6.476e-10
-0.464, -6.405e-10
-0.463, -6.318e-10
-0.462, -6.219e-10
-0.461, -6.143e-10
-0.460, -6.075e-10
-0.459, -5.997e-10
-0.458, -5.911e-10
-0.457, -5.848e-10
-0.456, -5.767e-10
-0.455, -5.680e-10
-0.454, -5.601e-10
-0.453, -5.526e-10
-0.452, -5.432e-10
-0.451, -5.360e-10
-0.450, -5.275e-10
-0.449, -5.195e-10
-0.448, -5.113e-10
-0.447, -5.032e-10
-0.446, -4.953e-10
-0.445, -4.853e-10
-0.444, -4.797e-10
-0.443, -4.721e-10
-0.442, -4.643e-10
-0.441, -4.571e-10
-0.440, -4.500e-10
-0.439, -4.430e-10
-0.438, -4.358e-10
-0.437, -4.296e-10
-0.436, -4.223e-10
-0.435, -4.158e-10
-0.434, -4.090e-10
-0.433, -4.024e-10
-0.432, -3.960e-10
-0.431, -3.886e-10
-0.430, -3.813e-10
-0.429, -3.748e-10
-0.428, -3.691e-10
-0.427, -3.618e-10
-0.426, -3.550e-10
-0.425, -3.488e-10
-0.424, -3.431e-10
-0.423, -3.374e-10
-0.422, -3.314e-10
-0.421, -3.257e-10
-0.420, -3.190e-10
-0.419, -3.131e-10
-0.418, -3.067e-10
-0.417, -3.009e-10
-0.416, -2.931e-10
-0.415, -2.865e-10
-0.414, -2.798e-10
-0.413, -2.736e-10
-0.412, -2.661e-10
-0.411, -2.589e-10
-0.410, -2.508e-10
-0.409, -2.427e-10
-0.408, -2.365e-10
-0.407, -2.296e-10
-0.406, -2.240e-10
-0.405, -2.175e-10
-0.404, -2.105e-10
-0.403, -2.052e-10
-0.402, -1.997e-10
-0.401, -1.932e-10
-0.400, -1.868e-10
-0.399, -1.821e-10
-0.398, -1.747e-10
-0.397, -1.694e-10
-0.396, -1.640e-10
-0.395, -1.572e-10
-0.394, -1.513e-10
-0.393, -1.462e-10
-0.392, -1.408e-10
-0.391, -1.347e-10
-0.390, -1.287e-10
-0.389, -1.230e-10
-0.388, -1.167e-10
-0.387, -1.118e-10
-0.386, -1.061e-10
-0.385, -1.012e-10
-0.384, -9.559e-11
-0.383, -9.081e-11
-0.382, -8.623e-11
-0.381, -7.999e-11
-0.380, -7.463e-11
-0.379, -6.830e-11
-0.378, -6.206e-11
-0.377, -5.562e-11
-0.376, -4.899e-11
-0.375, -4.120e-11
-0.374, -3.593e-11
-0.373, -2.911e-11
-0.372, -2.238e-11
-0.371, -1.536e-11
-0.370, -9.709e-12
-0.369, -3.763e-12
-0.368, 2.574e-12
-0.367, 9.007e-12
-0.366, 1.447e-11
-0.365, 2.226e-11
-0.364, 2.772e-11
-0.363, 3.260e-11
-0.362, 3.874e-11
-0.361, 4.342e-11
-0.360, 4.946e-11
-0.359, 5.541e-11
-0.358, 6.038e-11
-0.357, 6.623e-11
-0.356, 7.120e-11
-0.355, 7.705e-11
-0.354, 8.319e-11
-0.353, 8.709e-11
-0.352, 9.411e-11
-0.351, 1.001e-10
-0.350, 1.059e-10
-0.349, 1.122e-10
-0.348, 1.164e-10
-0.347, 1.207e-10
-0.346, 1.275e-10
-0.345, 1.319e-10
-0.344, 1.368e-10
-0.343, 1.418e-10
-0.342, 1.467e-10
-0.341, 1.519e-10
-0.340, 1.575e-10
-0.339, 1.622e-10
-0.338, 1.682e-10
-0.337, 1.726e-10
-0.336, 1.774e-10
-0.335, 1.824e-10
-0.334, 1.890e-10
-0.333, 1.947e-10
-0.332, 2.006e-10
-0.331, 2.071e-10
-0.330, 2.140e-10
-0.329, 2.190e-10
-0.328, 2.272e-10
-0.327, 2.337e-10
-0.326, 2.396e-10
-0.325, 2.453e-10
-0.324, 2.520e-10
-0.323, 2.571e-10
-0.322, 2.622e-10
-0.321, 2.660e-10
-0.320, 2.713e-10
-0.319, 2.781e-10
-0.318, 2.849e-10
-0.317, 2.893e-10
-0.316, 2.943e-10
-0.315, 3.003e-10
-0.314, 3.056e-10
-0.313, 3.120e-10
-0.312, 3.177e-10
-0.311, 3.236e-10
-0.310, 3.275e-10
-0.309, 3.345e-10
-0.308, 3.399e-10
-0.307, 3.491e-10
-0.306, 3.550e-10
-0.305, 3.588e-10
-0.304, 3.632e-10
-0.303, 3.682e-10
-0.302, 3.726e-10
-0.301, 3.792e-10
-0.300, 3.831e-10
-0.299, 3.888e-10
-0.298, 3.927e-10
-0.297, 3.972e-10
-0.296, 4.034e-10
-0.295, 4.094e-10
-0.294, 4.135e-10
-0.293, 4.186e-10
-0.292, 4.250e-10
-0.291, 4.296e-10
-0.290, 4.355e-10
-0.289, 4.425e-10
-0.288, 4.492e-10
-0.287, 4.574e-10
-0.286, 4.616e-10
-0.285, 4.690e-10
-0.284, 4.751e-10
-0.283, 4.823e-10
-0.282, 4.887e-10
-0.281, 4.948e-10
-0.280, 5.014e-10
-0.279, 5.067e-10
-0.278, 5.124e-10
-0.277, 5.193e-10
-0.276, 5.239e-10
-0.275, 5.291e-10
-0.274, 5.352e-10
-0.273, 5.413e-10
-0.272, 5.455e-10
-0.271, 5.497e-10
-0.270, 5.548e-10
-0.269, 5.610e-10
-0.268, 5.672e-10
-0.267, 5.728e-10
-0.266, 5.785e-10
-0.265, 5.838e-10
-0.264, 5.910e-10
-0.263, 5.975e-10
-0.262, 6.035e-10
-0.261, 6.100e-10
-0.260, 6.146e-10
-0.259, 6.210e-10
-0.258, 6.249e-10
-0.257, 6.297e-10
-0.256, 6.345e-10
-0.255, 6.417e-10
-0.254, 6.464e-10
-0.253, 6.524e-10
-0.252, 6.587e-10
-0.251, 6.639e-10
-0.250, 6.693e-10
-0.249, 6.746e-10
-0.248, 6.807e-10
-0.247, 6.868e-10
-0.246, 6.916e-10
-0.245, 6.981e-10
-0.244, 7.064e-10
-0.243, 7.116e-10
-0.242, 7.172e-10
-0.241, 7.242e-10
-0.240, 7.302e-10
-0.239, 7.360e-10
-0.238, 7.419e-10
-0.237, 7.478e-10
-0.236, 7.542e-10
-0.235, 7.603e-10
-0.234, 7.659e-10
-0.233, 7.706e-10
-0.232, 7.763e-10
-0.231, 7.825e-10
-0.230, 7.862e-10
-0.229, 7.928e-10
-0.228, 7.987e-10
-0.227, 8.042e-10
-0.226, 8.103e-10
-0.225, 8.177e-10
-0.224, 8.250e-10
-0.223, 8.301e-10
-0.222, 8.353e-10
-0.221, 8.403e-10
-0.220, 8.459e-10
-0.219, 8.512e-10
-0.218, 8.590e-10
-0.217, 8.632e-10
-0.216, 8.690e-10
-0.215, 8.748e-10
-0.214, 8.795e-10
-0.213, 8.861e-10
-0.212, 8.915e-10
-0.211, 8.989e-10
-0.210, 9.043e-10
-0.209, 9.091e-10
-0.208, 9.155e-10
-0.207, 9.218e-10
-0.206, 9.270e-10
-0.205, 9.327e-10
-0.204, 9.372e-10
-0.203, 9.456e-10
-0.202, 9.527e-10
-0.201, 9.582e-10
-0.200, 9.651e-10
-0.199, 9.720e-10
-0.198, 9.763e-10
-0.197, 9.812e-10
-0.196, 9.877e-10
-0.195, 9.934e-10
-0.194, 9.983e-10
-0.193, 1.004e-9
-0.192, 1.008e-9
-0.191, 1.013e-9
-0.190, 1.018e-9
-0.189, 1.025e-9
-0.188, 1.031e-9
-0.187, 1.036e-9
-0.186, 1.043e-9
-0.185, 1.049e-9
-0.184, 1.055e-9
-0.183, 1.061e-9
-0.182, 1.067e-9
-0.181, 1.073e-9
-0.180, 1.079e-9
-0.179, 1.085e-9
-0.178, 1.090e-9
-0.177, 1.096e-9
-0.176, 1.101e-9
-0.175, 1.107e-9
-0.174, 1.111e-9
-0.173, 1.117e-9
-0.172, 1.122e-9
-0.171, 1.128e-9
-0.170, 1.134e-9
-0.169, 1.139e-9
-0.168, 1.146e-9
-0.167, 1.150e-9
-0.166, 1.155e-9
-0.165, 1.162e-9
-0.164, 1.167e-9
-0.163, 1.173e-9
-0.162, 1.179e-9
-0.161, 1.186e-9
-0.160, 1.193e-9
-0.159, 1.200e-9
-0.158, 1.206e-9
-0.157, 1.211e-9
-0.156, 1.217e-9
-0.155, 1.223e-9
-0.154, 1.229e-9
-0.153, 1.235e-9
-0.152, 1.240e-9
-0.151, 1.247e-9
-0.150, 1.252e-9
-0.149, 1.258e-9
-0.148, 1.264e-9
-0.147, 1.269e-9
-0.146, 1.275e-9
-0.145, 1.281e-9
-0.144, 1.287e-9
-0.143, 1.291e-9
-0.142, 1.298e-9
-0.141, 1.305e-9
-0.140, 1.310e-9
-0.139, 1.316e-9
-0.138, 1.322e-9
-0.137, 1.328e-9
-0.136, 1.335e-9
-0.135, 1.341e-9
-0.134, 1.348e-9
-0.133, 1.352e-9
-0.132, 1.358e-9
-0.131, 1.363e-9
-0.130, 1.370e-9
-0.129, 1.376e-9
-0.128, 1.380e-9
-0.127, 1.386e-9
-0.126, 1.392e-9
-0.125, 1.398e-9
-0.124, 1.407e-9
-0.123, 1.411e-9
-0.122, 1.419e-9
-0.121, 1.424e-9
-0.120, 1.431e-9
-0.119, 1.437e-9
-0.118, 1.443e-9
-0.117, 1.449e-9
-0.116, 1.456e-9
-0.115, 1.462e-9
-0.114, 1.468e-9
-0.113, 1.473e-9
-0.112, 1.478e-9
-0.111, 1.483e-9
-0.110, 1.490e-9
-0.109, 1.495e-9
-0.108, 1.501e-9
-0.107, 1.507e-9
-0.106, 1.515e-9
-0.105, 1.519e-9
-0.104, 1.525e-9
-0.103, 1.531e-9
-0.102, 1.541e-9
-0.101, 1.547e-9
-0.100, 1.552e-9
-0.099, 1.558e-9
-0.098, 1.563e-9
-0.097, 1.568e-9
-0.096, 1.575e-9
-0.095, 1.582e-9
-0.094, 1.588e-9
-0.093, 1.593e-9
-0.092, 1.598e-9
-0.091, 1.604e-9
-0.090, 1.608e-9
-0.089, 1.613e-9
-0.088, 1.619e-9
-0.087, 1.625e-9
-0.086, 1.630e-9
-0.085, 1.635e-9
-0.084, 1.641e-9
-0.083, 1.647e-9
-0.082, 1.655e-9
-0.081, 1.661e-9
-0.080, 1.667e-9
-0.079, 1.674e-9
-0.078, 1.679e-9
-0.077, 1.686e-9
-0.076, 1.692e-9
-0.075, 1.699e-9
-0.074, 1.704e-9
-0.073, 1.710e-9
-0.072, 1.715e-9
-0.071, 1.720e-9
-0.070, 1.728e-9
-0.069, 1.732e-9
-0.068, 1.737e-9
-0.067, 1.743e-9
-0.066, 1.749e-9
-0.065, 1.755e-9
-0.064, 1.761e-9
-0.063, 1.766e-9
-0.062, 1.772e-9
-0.061, 1.778e-9
-0.060, 1.785e-9
-0.059, 1.791e-9
-0.058, 1.798e-9
-0.057, 1.802e-9
-0.056, 1.809e-9
-0.055, 1.815e-9
-0.054, 1.820e-9
-0.053, 1.827e-9
-0.052, 1.832e-9
-0.051, 1.838e-9
-0.050, 1.844e-9
-0.049, 1.851e-9
-0.048, 1.857e-9
-0.047, 1.863e-9
-0.046, 1.870e-9
-0.045, 1.876e-9
-0.044, 1.882e-9
-0.043, 1.887e-9
-0.042, 1.892e-9
-0.041, 1.898e-9
-0.040, 1.904e-9
-0.039, 1.910e-9
-0.038, 1.916e-9
-0.037, 1.922e-9
-0.036, 1.928e-9
-0.035, 1.934e-9
-0.034, 1.942e-9
-0.033, 1.948e-9
-0.032, 1.953e-9
-0.031, 1.960e-9
-0.030, 1.965e-9
-0.029, 1.970e-9
-0.028, 1.977e-9
-0.027, 1.983e-9
-0.026, 1.989e-9
-0.025, 1.992e-9
-0.024, 1.999e-9
-0.023, 2.004e-9
-0.022, 2.010e-9
-0.021, 2.017e-9
-0.020, 2.022e-9
-0.019, 2.029e-9
-0.018, 2.035e-9
-0.017, 2.041e-9
-0.016, 2.046e-9
-0.015, 2.051e-9
-0.014, 2.057e-9
-0.013, 2.064e-9
-0.012, 2.068e-9
-0.011, 2.075e-9
-0.010, 2.081e-9
-0.009, 2.085e-9
-0.008, 2.090e-9
-0.007, 2.097e-9
-0.006, 2.103e-9
-0.005, 2.108e-9
-0.004, 2.113e-9
-0.003, 2.119e-9
-0.002, 2.125e-9
-0.001, 2.131e-9
0.000, 2.133e-9
0.001, 2.138e-9
0.002, 2.145e-9
0.003, 2.154e-9
0.004, 2.160e-9
0.005, 2.167e-9
0.006, 2.174e-9
0.007, 2.180e-9
0.008, 2.186e-9
0.009, 2.194e-9
0.010, 2.200e-9
0.011, 2.206e-9
0.012, 2.210e-9
0.013, 2.216e-9
0.014, 2.222e-9
0.015, 2.228e-9
0.016, 2.234e-9
0.017, 2.240e-9
0.018, 2.246e-9
0.019, 2.254e-9
0.020, 2.259e-9
0.021, 2.265e-9
0.022, 2.272e-9
0.023, 2.277e-9
0.024, 2.284e-9
0.025, 2.291e-9
0.026, 2.296e-9
0.027, 2.302e-9
0.028, 2.309e-9
0.029, 2.316e-9
0.030, 2.323e-9
0.031, 2.330e-9
0.032, 2.337e-9
0.033, 2.343e-9
0.034, 2.348e-9
0.035, 2.354e-9
0.036, 2.359e-9
0.037, 2.365e-9
0.038, 2.372e-9
0.039, 2.379e-9
0.040, 2.385e-9
0.041, 2.391e-9
0.042, 2.398e-9
0.043, 2.405e-9
0.044, 2.412e-9
0.045, 2.418e-9
0.046, 2.426e-9
0.047, 2.431e-9
0.048, 2.438e-9
0.049, 2.443e-9
0.050, 2.448e-9
0.051, 2.454e-9
0.052, 2.461e-9
0.053, 2.468e-9
0.054, 2.475e-9
0.055, 2.481e-9
0.056, 2.489e-9
0.057, 2.495e-9
0.058, 2.501e-9
0.059, 2.508e-9
0.060, 2.515e-9
0.061, 2.521e-9
0.062, 2.529e-9
0.063, 2.536e-9
0.064, 2.542e-9
0.065, 2.549e-9
0.066, 2.555e-9
0.067, 2.561e-9
0.068, 2.567e-9
0.069, 2.573e-9
0.070, 2.580e-9
0.071, 2.585e-9
0.072, 2.592e-9
0.073, 2.598e-9
0.074, 2.606e-9
0.075, 2.612e-9
0.076, 2.618e-9
0.077, 2.626e-9
0.078, 2.633e-9
0.079, 2.643e-9
0.080, 2.653e-9
0.081, 2.659e-9
0.082, 2.668e-9
0.083, 2.677e-9
0.084, 2.685e-9
0.085, 2.694e-9
0.086, 2.702e-9
0.087, 2.712e-9
0.088, 2.719e-9
0.089, 2.727e-9
0.090, 2.736e-9
0.091, 2.744e-9
0.092, 2.752e-9
0.093, 2.762e-9
0.094, 2.772e-9
0.095, 2.783e-9
0.096, 2.793e-9
0.097, 2.805e-9
0.098, 2.820e-9
0.099, 2.837e-9
0.100, 2.856e-9
0.101, 2.883e-9
0.102, 2.918e-9
0.103, 2.961e-9
0.104, 3.011e-9
0.105, 3.069e-9
0.106, 3.143e-9
0.107, 3.243e-9
0.108, 3.346e-9
0.109, 3.479e-9
0.110, 3.626e-9
0.111, 3.808e-9
0.112, 4.010e-9
0.113, 4.221e-9
0.114, 4.456e-9
0.115, 4.717e-9
0.116, 4.926e-9
0.117, 5.147e-9
0.118, 5.301e-9
0.119, 5.324e-9
0.120, 5.352e-9
0.121, 5.317e-9
0.122, 5.213e-9
0.123, 5.075e-9
0.124, 4.901e-9
0.125, 4.732e-9
0.126, 4.557e-9
0.127, 4.384e-9
0.128, 4.226e-9
0.129, 4.076e-9
0.130, 3.944e-9
0.131, 3.813e-9
0.132, 3.700e-9
0.133, 3.593e-9
0.134, 3.504e-9
0.135, 3.430e-9
0.136, 3.366e-9
0.137, 3.314e-9
0.138, 3.270e-9
0.139, 3.236e-9
0.140, 3.211e-9
0.141, 3.183e-9
0.142, 3.164e-9
0.143, 3.150e-9
0.144, 3.135e-9
0.145, 3.123e-9
0.146, 3.118e-9
0.147, 3.114e-9
0.148, 3.111e-9
0.149, 3.110e-9
0.150, 3.109e-9
0.151, 3.106e-9
0.152, 3.111e-9
0.153, 3.112e-9
0.154, 3.107e-9
0.155, 3.109e-9
0.156, 3.109e-9
0.157, 3.107e-9
0.158, 3.109e-9
0.159, 3.112e-9
0.160, 3.113e-9
0.161, 3.114e-9
0.162, 3.117e-9
0.163, 3.123e-9
0.164, 3.128e-9
0.165, 3.130e-9
0.166, 3.132e-9
0.167, 3.131e-9
0.168, 3.135e-9
0.169, 3.137e-9
0.170, 3.138e-9
0.171, 3.143e-9
0.172, 3.148e-9
0.173, 3.151e-9
0.174, 3.155e-9
0.175, 3.158e-9
0.176, 3.160e-9
0.177, 3.163e-9
0.178, 3.168e-9
0.179, 3.172e-9
0.180, 3.174e-9
0.181, 3.176e-9
0.182, 3.180e-9
0.183, 3.182e-9
0.184, 3.184e-9
0.185, 3.187e-9
0.186, 3.190e-9
0.187, 3.194e-9
0.188, 3.197e-9
0.189, 3.199e-9
0.190, 3.202e-9
0.191, 3.205e-9
0.192, 3.210e-9
0.193, 3.214e-9
0.194, 3.217e-9
0.195, 3.220e-9
0.196, 3.222e-9
0.197, 3.224e-9
0.198, 3.228e-9
0.199, 3.233e-9
0.200, 3.236e-9
0.201, 3.238e-9
0.202, 3.241e-9
0.203, 3.243e-9
0.204, 3.245e-9
0.205, 3.244e-9
0.206, 3.249e-9
0.207, 3.253e-9
0.208, 3.257e-9
0.209, 3.260e-9
0.210, 3.263e-9
0.211, 3.264e-9
0.212, 3.267e-9
0.213, 3.270e-9
0.214, 3.270e-9
0.215, 3.273e-9
0.216, 3.276e-9
0.217, 3.278e-9
0.218, 3.281e-9
0.219, 3.284e-9
0.220, 3.286e-9
0.221, 3.287e-9
0.222, 3.289e-9
0.223, 3.292e-9
0.224, 3.294e-9
0.225, 3.296e-9
0.226, 3.300e-9
0.227, 3.302e-9
0.228, 3.304e-9
0.229, 3.308e-9
0.230, 3.310e-9
0.231, 3.312e-9
0.232, 3.314e-9
0.233, 3.317e-9
0.234, 3.318e-9
0.235, 3.320e-9
0.236, 3.323e-9
0.237, 3.324e-9
0.238, 3.328e-9
0.239, 3.331e-9
0.240, 3.334e-9
0.241, 3.336e-9
0.242, 3.339e-9
0.243, 3.339e-9
0.244, 3.342e-9
0.245, 3.345e-9
0.246, 3.349e-9
0.247, 3.350e-9
0.248, 3.351e-9
0.249, 3.355e-9
0.250, 3.357e-9
0.251, 3.359e-9
0.252, 3.361e-9
0.253, 3.366e-9
0.254, 3.366e-9
0.255, 3.368e-9
0.256, 3.371e-9
0.257, 3.374e-9
0.258, 3.376e-9
0.259, 3.380e-9
0.260, 3.384e-9
0.261, 3.387e-9
0.262, 3.389e-9
0.263, 3.392e-9
0.264, 3.394e-9
0.265, 3.396e-9
0.266, 3.398e-9
0.267, 3.400e-9
0.268, 3.402e-9
0.269, 3.405e-9
0.270, 3.410e-9
0.271, 3.412e-9
0.272, 3.415e-9
0.273, 3.418e-9
0.274, 3.421e-9
0.275, 3.425e-9
0.276, 3.426e-9
0.277, 3.428e-9
0.278, 3.433e-9
0.279, 3.435e-9
0.280, 3.437e-9
0.281, 3.439e-9
0.282, 3.439e-9
0.283, 3.444e-9
0.284, 3.448e-9
0.285, 3.452e-9
0.286, 3.454e-9
0.287, 3.456e-9
0.288, 3.460e-9
0.289, 3.463e-9
0.290, 3.465e-9
0.291, 3.469e-9
0.292, 3.472e-9
0.293, 3.476e-9
0.294, 3.479e-9
0.295, 3.482e-9
0.296, 3.487e-9
0.297, 3.489e-9
0.298, 3.491e-9
0.299, 3.495e-9
0.300, 3.499e-9
0.301, 3.503e-9
0.302, 3.507e-9
0.303, 3.510e-9
0.304, 3.513e-9
0.305, 3.518e-9
0.306, 3.521e-9
0.307, 3.526e-9
0.308, 3.532e-9
0.309, 3.532e-9
0.310, 3.535e-9
0.311, 3.537e-9
0.312, 3.541e-9
0.313, 3.545e-9
0.314, 3.548e-9
0.315, 3.551e-9
0.316, 3.553e-9
0.317, 3.557e-9
0.318, 3.560e-9
0.319, 3.564e-9
0.320, 3.567e-9
0.321, 3.570e-9
0.322, 3.574e-9
0.323, 3.577e-9
0.324, 3.580e-9
0.325, 3.583e-9
0.326, 3.587e-9
0.327, 3.591e-9
0.328, 3.595e-9
0.329, 3.599e-9
0.330, 3.601e-9
0.331, 3.606e-9
0.332, 3.612e-9
0.333, 3.616e-9
0.334, 3.624e-9
0.335, 3.629e-9
0.336, 3.632e-9
0.337, 3.638e-9
0.338, 3.641e-9
0.339, 3.648e-9
0.340, 3.652e-9
0.341, 3.657e-9
0.342, 3.662e-9
0.343, 3.664e-9
0.344, 3.671e-9
0.345, 3.674e-9
0.346, 3.676e-9
0.347, 3.681e-9
0.348, 3.687e-9
0.349, 3.693e-9
0.350, 3.698e-9
0.351, 3.704e-9
0.352, 3.708e-9
0.353, 3.714e-9
0.354, 3.717e-9
0.355, 3.722e-9
0.356, 3.725e-9
0.357, 3.730e-9
0.358, 3.733e-9
0.359, 3.736e-9
0.360, 3.744e-9
0.361, 3.748e-9
0.362, 3.752e-9
0.363, 3.756e-9
0.364, 3.761e-9
0.365, 3.767e-9
0.366, 3.772e-9
0.367, 3.777e-9
0.368, 3.783e-9
0.369, 3.785e-9
0.370, 3.791e-9
0.371, 3.795e-9
0.372, 3.800e-9
0.373, 3.805e-9
0.374, 3.810e-9
0.375, 3.814e-9
0.376, 3.819e-9
0.377, 3.823e-9
0.378, 3.830e-9
0.379, 3.834e-9
0.380, 3.838e-9
0.381, 3.842e-9
0.382, 3.848e-9
0.383, 3.851e-9
0.384, 3.854e-9
0.385, 3.859e-9
0.386, 3.864e-9
0.387, 3.869e-9
0.388, 3.874e-9
0.389, 3.882e-9
0.390, 3.887e-9
0.391, 3.892e-9
0.392, 3.898e-9
0.393, 3.903e-9
0.394, 3.908e-9
0.395, 3.915e-9
0.396, 3.922e-9
0.397, 3.925e-9
0.398, 3.931e-9
0.399, 3.936e-9
0.400, 3.942e-9
0.401, 3.948e-9
0.402, 3.953e-9
0.403, 3.957e-9
0.404, 3.963e-9
0.405, 3.967e-9
0.406, 3.974e-9
0.407, 3.980e-9
0.408, 3.985e-9
0.409, 3.990e-9
0.410, 3.990e-9
0.411, 3.998e-9
0.412, 4.004e-9
0.413, 4.011e-9
0.414, 4.018e-9
0.415, 4.024e-9
0.416, 4.029e-9
0.417, 4.035e-9
0.418, 4.040e-9
0.419, 4.044e-9
0.420, 4.050e-9
0.421, 4.056e-9
0.422, 4.061e-9
0.423, 4.066e-9
0.424, 4.073e-9
0.425, 4.077e-9
0.426, 4.084e-9
0.427, 4.090e-9
0.428, 4.095e-9
0.429, 4.102e-9
0.430, 4.110e-9
0.431, 4.117e-9
0.432, 4.124e-9
0.433, 4.130e-9
0.434, 4.137e-9
0.435, 4.145e-9
0.436, 4.151e-9
0.437, 4.159e-9
0.438, 4.165e-9
0.439, 4.171e-9
0.440, 4.179e-9
0.441, 4.186e-9
0.442, 4.192e-9
0.443, 4.199e-9
0.444, 4.204e-9
0.445, 4.210e-9
0.446, 4.218e-9
0.447, 4.224e-9
0.448, 4.230e-9
0.449, 4.238e-9
0.450, 4.244e-9
0.451, 4.250e-9
0.452, 4.257e-9
0.453, 4.264e-9
0.454, 4.270e-9
0.455, 4.279e-9
0.456, 4.284e-9
0.457, 4.290e-9
0.458, 4.295e-9
0.459, 4.303e-9
0.460, 4.310e-9
0.461, 4.314e-9
0.462, 4.320e-9
0.463, 4.327e-9
0.464, 4.333e-9
0.465, 4.341e-9
0.466, 4.347e-9
0.467, 4.354e-9
0.468, 4.363e-9
0.469, 4.370e-9
0.470, 4.378e-9
0.471, 4.385e-9
0.472, 4.393e-9
0.473, 4.402e-9
0.474, 4.408e-9
0.475, 4.414e-9
0.476, 4.422e-9
0.477, 4.429e-9
0.478, 4.436e-9
0.479, 4.445e-9
0.480, 4.451e-9
0.481, 4.458e-9
0.482, 4.464e-9
0.483, 4.473e-9
0.484, 4.481e-9
0.485, 4.488e-9
0.486, 4.496e-9
0.487, 4.503e-9
0.488, 4.512e-9
0.489, 4.522e-9
0.490, 4.528e-9
0.491, 4.536e-9
0.492, 4.543e-9
0.493, 4.549e-9
0.494, 4.557e-9
0.495, 4.564e-9
0.496, 4.570e-9
0.497, 4.578e-9
0.498, 4.587e-9
0.499, 4.597e-9
0.500, 4.567e-9
0.499, 4.406e-9
0.498, 4.285e-9
0.497, 4.202e-9
0.496, 4.127e-9
0.495, 4.063e-9
0.494, 4.009e-9
0.493, 3.951e-9
0.492, 3.898e-9
0.491, 3.847e-9
0.490, 3.800e-9
0.489, 3.757e-9
0.488, 3.714e-9
0.487, 3.670e-9
0.486, 3.629e-9
0.485, 3.589e-9
0.484, 3.555e-9
0.483, 3.522e-9
0.482, 3.487e-9
0.481, 3.451e-9
0.480, 3.419e-9
0.479, 3.381e-9
0.478, 3.347e-9
0.477, 3.318e-9
0.476, 3.289e-9
0.475, 3.259e-9
0.474, 3.228e-9
0.473, 3.199e-9
0.472, 3.170e-9
0.471, 3.139e-9
0.470, 3.111e-9
0.469, 3.087e-9
0.468, 3.065e-9
0.467, 3.040e-9
0.466, 3.015e-9
0.465, 2.990e-9
0.464, 2.965e-9
0.463, 2.941e-9
0.462, 2.919e-9
0.461, 2.895e-9
0.460, 2.872e-9
0.459, 2.848e-9
0.458, 2.827e-9
0.457, 2.807e-9
0.456, 2.786e-9
0.455, 2.766e-9
0.454, 2.746e-9
0.453, 2.726e-9
0.452, 2.704e-9
0.451, 2.682e-9
0.450, 2.657e-9
0.449, 2.636e-9
0.448, 2.616e-9
0.447, 2.599e-9
0.446, 2.582e-9
0.445, 2.564e-9
0.444, 2.545e-9
0.443, 2.526e-9
0.442, 2.508e-9
0.441, 2.491e-9
0.440, 2.475e-9
0.439, 2.456e-9
0.438, 2.439e-9
0.437, 2.422e-9
0.436, 2.404e-9
0.435, 2.387e-9
0.434, 2.369e-9
0.433, 2.353e-9
0.432, 2.337e-9
0.431, 2.321e-9
0.430, 2.304e-9
0.429, 2.287e-9
0.428, 2.272e-9
0.427, 2.257e-9
0.426, 2.241e-9
0.425, 2.226e-9
0.424, 2.210e-9
0.423, 2.194e-9
0.422, 2.178e-9
0.421, 2.161e-9
0.420, 2.143e-9
0.419, 2.130e-9
0.418, 2.115e-9
0.417, 2.101e-9
0.416, 2.088e-9
0.415, 2.075e-9
0.414, 2.062e-9
0.413, 2.049e-9
0.412, 2.036e-9
0.411, 2.021e-9
0.410, 2.008e-9
0.409, 2.000e-9
0.408, 1.983e-9
0.407, 1.969e-9
0.406, 1.957e-9
0.405, 1.943e-9
0.404, 1.929e-9
0.403, 1.915e-9
0.402, 1.899e-9
0.401, 1.885e-9
0.400, 1.872e-9
0.399, 1.859e-9
0.398, 1.846e-9
0.397, 1.833e-9
0.396, 1.821e-9
0.395, 1.808e-9
0.394, 1.794e-9
0.393, 1.782e-9
0.392, 1.769e-9
0.391, 1.756e-9
0.390, 1.744e-9
0.389, 1.732e-9
0.388, 1.720e-9
0.387, 1.708e-9
0.386, 1.695e-9
0.385, 1.682e-9
0.384, 1.669e-9
0.383, 1.656e-9
0.382, 1.643e-9
0.381, 1.631e-9
0.380, 1.621e-9
0.379, 1.610e-9
0.378, 1.598e-9
0.377, 1.586e-9
0.376, 1.575e-9
0.375, 1.564e-9
0.374, 1.553e-9
0.373, 1.541e-9
0.372, 1.529e-9
0.371, 1.518e-9
0.370, 1.508e-9
0.369, 1.496e-9
0.368, 1.487e-9
0.367, 1.477e-9
0.366, 1.465e-9
0.365, 1.453e-9
0.364, 1.442e-9
0.363, 1.430e-9
0.362, 1.418e-9
0.361, 1.407e-9
0.360, 1.395e-9
0.359, 1.383e-9
0.358, 1.374e-9
0.357, 1.363e-9
0.356, 1.353e-9
0.355, 1.342e-9
0.354, 1.331e-9
0.353, 1.320e-9
0.352, 1.308e-9
0.351, 1.297e-9
0.350, 1.286e-9
0.349, 1.277e-9
0.348, 1.267e-9
0.347, 1.256e-9
0.346, 1.246e-9
0.345, 1.238e-9
0.344, 1.228e-9
0.343, 1.217e-9
0.342, 1.205e-9
0.341, 1.194e-9
0.340, 1.184e-9
0.339, 1.172e-9
0.338, 1.162e-9
0.337, 1.152e-9
0.336, 1.142e-9
0.335, 1.134e-9
0.334, 1.126e-9
0.333, 1.117e-9
0.332, 1.107e-9
0.331, 1.097e-9
0.330, 1.089e-9
0.329, 1.079e-9
0.328, 1.070e-9
0.327, 1.060e-9
0.326, 1.051e-9
0.325, 1.041e-9
0.324, 1.032e-9
0.323, 1.022e-9
0.322, 1.013e-9
0.321, 1.004e-9
0.320, 9.949e-10
0.319, 9.856e-10
0.318, 9.774e-10
0.317, 9.686e-10
0.316, 9.587e-10
0.315, 9.499e-10
0.314, 9.392e-10
0.313, 9.298e-10
0.312, 9.209e-10
0.311, 9.102e-10
0.310, 9.017e-10
0.309, 8.922e-10
0.308, 8.832e-10
0.307, 8.711e-10
0.306, 8.616e-10
0.305, 8.527e-10
0.304, 8.439e-10
0.303, 8.362e-10
0.302, 8.276e-10
0.301, 8.182e-10
0.300, 8.097e-10
0.299, 7.999e-10
0.298, 7.906e-10
0.297, 7.835e-10
0.296, 7.745e-10
0.295, 7.662e-10
0.294, 7.579e-10
0.293, 7.493e-10
0.292, 7.406e-10
0.291, 7.322e-10
0.290, 7.235e-10
0.289, 7.140e-10
0.288, 7.054e-10
0.287, 6.950e-10
0.286, 6.861e-10
0.285, 6.773e-10
0.284, 6.695e-10
0.283, 6.600e-10
0.282, 6.517e-10
0.281, 6.438e-10
0.280, 6.362e-10
0.279, 6.272e-10
0.278, 6.194e-10
0.277, 6.100e-10
0.276, 6.017e-10
0.275, 5.934e-10
0.274, 5.856e-10
0.273, 5.775e-10
0.272, 5.696e-10
0.271, 5.600e-10
0.270, 5.520e-10
0.269, 5.451e-10
0.268, 5.361e-10
0.267, 5.255e-10
0.266, 5.184e-10
0.265, 5.093e-10
0.264, 5.017e-10
0.263, 4.918e-10
0.262, 4.829e-10
0.261, 4.726e-10
0.260, 4.620e-10
0.259, 4.542e-10
0.258, 4.443e-10
0.257, 4.348e-10
0.256, 4.262e-10
0.255, 4.193e-10
0.254, 4.115e-10
0.253, 4.034e-10
0.252, 3.956e-10
0.251, 3.879e-10
0.250, 3.801e-10
0.249, 3.737e-10
0.248, 3.655e-10
0.247, 3.577e-10
0.246, 3.502e-10
0.245, 3.413e-10
0.244, 3.329e-10
0.243, 3.251e-10
0.242, 3.176e-10
0.241, 3.104e-10
0.240, 3.025e-10
0.239, 2.938e-10
0.238, 2.861e-10
0.237, 2.786e-10
0.236, 2.706e-10
0.235, 2.624e-10
0.234, 2.545e-10
0.233, 2.456e-10
0.232, 2.372e-10
0.231, 2.299e-10
0.230, 2.209e-10
0.229, 2.106e-10
0.228, 2.018e-10
0.227, 1.952e-10
0.226, 1.850e-10
0.225, 1.766e-10
0.224, 1.688e-10
0.223, 1.622e-10
0.222, 1.549e-10
0.221, 1.470e-10
0.220, 1.400e-10
0.219, 1.339e-10
0.218, 1.267e-10
0.217, 1.191e-10
0.216, 1.126e-10
0.215, 1.037e-10
0.214, 9.577e-11
0.213, 8.855e-11
0.212, 7.900e-11
0.211, 7.101e-11
0.210, 6.194e-11
0.209, 5.473e-11
0.208, 4.722e-11
0.207, 3.903e-11
0.206, 3.123e-11
0.205, 2.607e-11
0.204, 2.022e-11
0.203, 1.018e-11
0.202, -2.534e-13
0.201, -8.442e-12
0.200, -1.809e-11
0.199, -2.862e-11
0.198, -3.856e-11
0.197, -4.743e-11
0.196, -5.553e-11
0.195, -6.459e-11
0.194, -7.366e-11
0.193, -8.107e-11
0.192, -8.867e-11
0.191, -9.510e-11
0.190, -1.029e-10
0.189, -1.124e-10
0.188, -1.198e-10
0.187, -1.295e-10
0.186, -1.378e-10
0.185, -1.464e-10
0.184, -1.542e-10
0.183, -1.621e-10
0.182, -1.704e-10
0.181, -1.794e-10
0.180, -1.884e-10
0.179, -1.962e-10
0.178, -2.042e-10
0.177, -2.128e-10
0.176, -2.204e-10
0.175, -2.301e-10
0.174, -2.398e-10
0.173, -2.487e-10
0.172, -2.577e-10
0.171, -2.667e-10
0.170, -2.774e-10
0.169, -2.889e-10
0.168, -2.974e-10
0.167, -3.062e-10
0.166, -3.143e-10
0.165, -3.224e-10
0.164, -3.315e-10
0.163, -3.402e-10
0.162, -3.482e-10
0.161, -3.565e-10
0.160, -3.648e-10
0.159, -3.731e-10
0.158, -3.816e-10
0.157, -3.910e-10
0.156, -4.009e-10
0.155, -4.093e-10
0.154, -4.178e-10
0.153, -4.262e-10
0.152, -4.361e-10
0.151, -4.460e-10
0.150, -4.533e-10
0.149, -4.630e-10
0.148, -4.727e-10
0.147, -4.829e-10
0.146, -4.933e-10
0.145, -5.033e-10
0.144, -5.131e-10
0.143, -5.255e-10
0.142, -5.348e-10
0.141, -5.464e-10
0.140, -5.561e-10
0.139, -5.664e-10
0.138, -5.751e-10
0.137, -5.833e-10
0.136, -5.932e-10
0.135, -6.022e-10
0.134, -6.108e-10
0.133, -6.218e-10
0.132, -6.317e-10
0.131, -6.420e-10
0.130, -6.517e-10
0.129, -6.620e-10
0.128, -6.721e-10
0.127, -6.819e-10
0.126, -6.916e-10
0.125, -7.008e-10
0.124, -7.091e-10
0.123, -7.201e-10
0.122, -7.305e-10
0.121, -7.421e-10
0.120, -7.548e-10
0.119, -7.663e-10
0.118, -7.769e-10
0.117, -7.866e-10
0.116, -7.969e-10
0.115, -8.056e-10
0.114, -8.159e-10
0.113, -8.244e-10
0.112, -8.336e-10
0.111, -8.443e-10
0.110, -8.546e-10
0.109, -8.661e-10
0.108, -8.769e-10
0.107, -8.872e-10
0.106, -8.976e-10
0.105, -9.079e-10
0.104, -9.203e-10
0.103, -9.320e-10
0.102, -9.460e-10
0.101, -9.562e-10
0.100, -9.653e-10
0.099, -9.749e-10
0.098, -9.869e-10
0.097, -1.000e-9
0.096, -1.010e-9
0.095, -1.023e-9
0.094, -1.035e-9
0.093, -1.048e-9
0.092, -1.058e-9
0.091, -1.068e-9
0.090, -1.078e-9
0.089, -1.089e-9
0.088, -1.099e-9
0.087, -1.109e-9
0.086, -1.118e-9
0.085, -1.130e-9
0.084, -1.140e-9
0.083, -1.150e-9
0.082, -1.162e-9
0.081, -1.175e-9
0.080, -1.185e-9
0.079, -1.195e-9
0.078, -1.205e-9
0.077, -1.215e-9
0.076, -1.227e-9
0.075, -1.240e-9
0.074, -1.253e-9
0.073, -1.265e-9
0.072, -1.277e-9
0.071, -1.288e-9
0.070, -1.297e-9
0.069, -1.307e-9
0.068, -1.316e-9
0.067, -1.326e-9
0.066, -1.336e-9
0.065, -1.347e-9
0.064, -1.357e-9
0.063, -1.368e-9
0.062, -1.378e-9
0.061, -1.387e-9
0.060, -1.397e-9
0.059, -1.409e-9
0.058, -1.421e-9
0.057, -1.430e-9
0.056, -1.439e-9
0.055, -1.449e-9
0.054, -1.459e-9
0.053, -1.472e-9
0.052, -1.483e-9
0.051, -1.494e-9
0.050, -1.506e-9
0.049, -1.518e-9
0.048, -1.529e-9
0.047, -1.539e-9
0.046, -1.548e-9
0.045, -1.557e-9
0.044, -1.567e-9
0.043, -1.575e-9
0.042, -1.584e-9
0.041, -1.593e-9
0.040, -1.602e-9
0.039, -1.612e-9
0.038, -1.620e-9
0.037, -1.630e-9
0.036, -1.640e-9
0.035, -1.648e-9
0.034, -1.657e-9
0.033, -1.665e-9
0.032, -1.674e-9
0.031, -1.683e-9
0.030, -1.693e-9
0.029, -1.702e-9
0.028, -1.711e-9
0.027, -1.722e-9
0.026, -1.731e-9
0.025, -1.742e-9
0.024, -1.752e-9
0.023, -1.761e-9
0.022, -1.769e-9
0.021, -1.778e-9
0.020, -1.785e-9
0.019, -1.794e-9
0.018, -1.801e-9
0.017, -1.809e-9
0.016, -1.817e-9
0.015, -1.827e-9
0.014, -1.834e-9
0.013, -1.842e-9
0.012, -1.851e-9
0.011, -1.860e-9
0.010, -1.867e-9
0.009, -1.876e-9
0.008, -1.885e-9
0.007, -1.892e-9
0.006, -1.901e-9
0.005, -1.908e-9
0.004, -1.916e-9
0.003, -1.922e-9
0.002, -1.930e-9
0.001, -1.938e-9
-0.000, -1.941e-9
-0.001, -1.946e-9
-0.002, -1.955e-9
-0.003, -1.964e-9
-0.004, -1.971e-9
-0.005, -1.979e-9
-0.006, -1.986e-9
-0.007, -1.994e-9
-0.008, -2.002e-9
-0.009, -2.010e-9
-0.010, -2.017e-9
-0.011, -2.025e-9
-0.012, -2.033e-9
-0.013, -2.040e-9
-0.014, -2.048e-9
-0.015, -2.056e-9
-0.016, -2.064e-9
-0.017, -2.072e-9
-0.018, -2.082e-9
-0.019, -2.091e-9
-0.020, -2.103e-9
-0.021, -2.115e-9
-0.022, -2.126e-9
-0.023, -2.136e-9
-0.024, -2.148e-9
-0.025, -2.161e-9
-0.026, -2.173e-9
-0.027, -2.185e-9
-0.028, -2.200e-9
-0.029, -2.208e-9
-0.030, -2.224e-9
-0.031, -2.242e-9
-0.032, -2.257e-9
-0.033, -2.267e-9
-0.034, -2.282e-9
-0.035, -2.292e-9
-0.036, -2.301e-9
-0.037, -2.317e-9
-0.038, -2.336e-9
-0.039, -2.348e-9
-0.040, -2.366e-9
-0.041, -2.382e-9
-0.042, -2.395e-9
-0.043, -2.412e-9
-0.044, -2.431e-9
-0.045, -2.444e-9
-0.046, -2.463e-9
-0.047, -2.488e-9
-0.048, -2.496e-9
-0.049, -2.511e-9
-0.050, -2.524e-9
-0.051, -2.543e-9
-0.052, -2.559e-9
-0.053, -2.570e-9
-0.054, -2.577e-9
-0.055, -2.577e-9
-0.056, -2.578e-9
-0.057, -2.584e-9
-0.058, -2.590e-9
-0.059, -2.580e-9
-0.060, -2.565e-9
-0.061, -2.558e-9
-0.062, -2.557e-9
-0.063, -2.545e-9
-0.064, -2.545e-9
-0.065, -2.543e-9
-0.066, -2.548e-9
-0.067, -2.525e-9
-0.068, -2.504e-9
-0.069, -2.487e-9
-0.070, -2.478e-9
-0.071, -2.478e-9
-0.072, -2.471e-9
-0.073, -2.457e-9
-0.074, -2.454e-9
-0.075, -2.464e-9
-0.076, -2.449e-9
-0.077, -2.439e-9
-0.078, -2.437e-9
-0.079, -2.422e-9
-0.080, -2.424e-9
-0.081, -2.427e-9
-0.082, -2.417e-9
-0.083, -2.415e-9
-0.084, -2.409e-9
-0.085, -2.411e-9
-0.086, -2.412e-9
-0.087, -2.422e-9
-0.088, -2.434e-9
-0.089, -2.414e-9
-0.090, -2.403e-9
-0.091, -2.405e-9
-0.092, -2.408e-9
-0.093, -2.419e-9
-0.094, -2.435e-9
-0.095, -2.428e-9
-0.096, -2.421e-9
-0.097, -2.423e-9
-0.098, -2.426e-9
-0.099, -2.418e-9
-0.100, -2.422e-9
-0.101, -2.418e-9
-0.102, -2.409e-9
-0.103, -2.421e-9
-0.104, -2.427e-9
-0.105, -2.425e-9
-0.106, -2.416e-9
-0.107, -2.422e-9
-0.108, -2.429e-9
-0.109, -2.434e-9
-0.110, -2.430e-9
-0.111, -2.441e-9
-0.112, -2.427e-9
-0.113, -2.424e-9
-0.114, -2.426e-9
-0.115, -2.448e-9
-0.116, -2.458e-9
-0.117, -2.436e-9
-0.118, -2.435e-9
-0.119, -2.435e-9
-0.120, -2.431e-9
-0.121, -2.437e-9
-0.122, -2.449e-9
-0.123, -2.451e-9
-0.124, -2.444e-9
-0.125, -2.438e-9
-0.126, -2.442e-9
-0.127, -2.452e-9
-0.128, -2.452e-9
-0.129, -2.453e-9
-0.130, -2.456e-9
-0.131, -2.456e-9
-0.132, -2.461e-9
-0.133, -2.462e-9
-0.134, -2.466e-9
-0.135, -2.462e-9
-0.136, -2.465e-9
-0.137, -2.472e-9
-0.138, -2.477e-9
-0.139, -2.472e-9
-0.140, -2.473e-9
-0.141, -2.476e-9
-0.142, -2.478e-9
-0.143, -2.482e-9
-0.144, -2.485e-9
-0.145, -2.491e-9
-0.146, -2.500e-9
-0.147, -2.511e-9
-0.148, -2.500e-9
-0.149, -2.506e-9
-0.150, -2.504e-9
-0.151, -2.509e-9
-0.152, -2.505e-9
-0.153, -2.506e-9
-0.154, -2.509e-9
-0.155, -2.515e-9
-0.156, -2.516e-9
-0.157, -2.525e-9
-0.158, -2.525e-9
-0.159, -2.524e-9
-0.160, -2.526e-9
-0.161, -2.529e-9
-0.162, -2.532e-9
-0.163, -2.533e-9
-0.164, -2.534e-9
-0.165, -2.536e-9
-0.166, -2.539e-9
-0.167, -2.540e-9
-0.168, -2.544e-9
-0.169, -2.546e-9
-0.170, -2.548e-9
-0.171, -2.549e-9
-0.172, -2.552e-9
-0.173, -2.556e-9
-0.174, -2.559e-9
-0.175, -2.563e-9
-0.176, -2.564e-9
-0.177, -2.568e-9
-0.178, -2.572e-9
-0.179, -2.573e-9
-0.180, -2.574e-9
-0.181, -2.579e-9
-0.182, -2.581e-9
-0.183, -2.584e-9
-0.184, -2.588e-9
-0.185, -2.590e-9
-0.186, -2.594e-9
-0.187, -2.597e-9
-0.188, -2.600e-9
-0.189, -2.601e-9
-0.190, -2.608e-9
-0.191, -2.609e-9
-0.192, -2.610e-9
-0.193, -2.614e-9
-0.194, -2.619e-9
-0.195, -2.619e-9
-0.196, -2.621e-9
-0.197, -2.623e-9
-0.198, -2.627e-9
-0.199, -2.631e-9
-0.200, -2.634e-9
-0.201, -2.635e-9
-0.202, -2.635e-9
-0.203, -2.639e-9
-0.204, -2.643e-9
-0.205, -2.642e-9
-0.206, -2.645e-9
-0.207, -2.648e-9
-0.208, -2.653e-9
-0.209, -2.657e-9
-0.210, -2.656e-9
-0.211, -2.659e-9
-0.212, -2.663e-9
-0.213, -2.665e-9
-0.214, -2.669e-9
-0.215, -2.672e-9
-0.216, -2.676e-9
-0.217, -2.678e-9
-0.218, -2.681e-9
-0.219, -2.685e-9
-0.220, -2.689e-9
-0.221, -2.691e-9
-0.222, -2.693e-9
-0.223, -2.698e-9
-0.224, -2.700e-9
-0.225, -2.703e-9
-0.226, -2.705e-9
-0.227, -2.709e-9
-0.228, -2.711e-9
-0.229, -2.713e-9
-0.230, -2.715e-9
-0.231, -2.720e-9
-0.232, -2.725e-9
-0.233, -2.729e-9
-0.234, -2.733e-9
-0.235, -2.739e-9
-0.236, -2.739e-9
-0.237, -2.742e-9
-0.238, -2.745e-9
-0.239, -2.749e-9
-0.240, -2.753e-9
-0.241, -2.752e-9
-0.242, -2.754e-9
-0.243, -2.755e-9
-0.244, -2.758e-9
-0.245, -2.760e-9
-0.246, -2.763e-9
-0.247, -2.765e-9
-0.248, -2.768e-9
-0.249, -2.772e-9
-0.250, -2.775e-9
-0.251, -2.777e-9
-0.252, -2.778e-9
-0.253, -2.781e-9
-0.254, -2.782e-9
-0.255, -2.786e-9
-0.256, -2.787e-9
-0.257, -2.789e-9
-0.258, -2.792e-9
-0.259, -2.796e-9
-0.260, -2.799e-9
-0.261, -2.800e-9
-0.262, -2.807e-9
-0.263, -2.807e-9
-0.264, -2.810e-9
-0.265, -2.812e-9
-0.266, -2.813e-9
-0.267, -2.817e-9
-0.268, -2.818e-9
-0.269, -2.821e-9
-0.270, -2.823e-9
-0.271, -2.825e-9
-0.272, -2.828e-9
-0.273, -2.831e-9
-0.274, -2.834e-9
-0.275, -2.840e-9
-0.276, -2.842e-9
-0.277, -2.844e-9
-0.278, -2.847e-9
-0.279, -2.848e-9
-0.280, -2.850e-9
-0.281, -2.853e-9
-0.282, -2.855e-9
-0.283, -2.859e-9
-0.284, -2.862e-9
-0.285, -2.862e-9
-0.286, -2.864e-9
-0.287, -2.866e-9
-0.288, -2.868e-9
-0.289, -2.870e-9
-0.290, -2.871e-9
-0.291, -2.875e-9
-0.292, -2.877e-9
-0.293, -2.880e-9
-0.294, -2.882e-9
-0.295, -2.883e-9
-0.296, -2.885e-9
-0.297, -2.888e-9
-0.298, -2.889e-9
-0.299, -2.892e-9
-0.300, -2.893e-9
-0.301, -2.895e-9
-0.302, -2.898e-9
-0.303, -2.900e-9
-0.304, -2.902e-9
-0.305, -2.904e-9
-0.306, -2.906e-9
-0.307, -2.909e-9
-0.308, -2.914e-9
-0.309, -2.915e-9
-0.310, -2.916e-9
-0.311, -2.916e-9
-0.312, -2.917e-9
-0.313, -2.920e-9
-0.314, -2.921e-9
-0.315, -2.922e-9
-0.316, -2.923e-9
-0.317, -2.925e-9
-0.318, -2.927e-9
-0.319, -2.929e-9
-0.320, -2.930e-9
-0.321, -2.931e-9
-0.322, -2.933e-9
-0.323, -2.933e-9
-0.324, -2.936e-9
-0.325, -2.939e-9
-0.326, -2.942e-9
-0.327, -2.943e-9
-0.328, -2.944e-9
-0.329, -2.946e-9
-0.330, -2.948e-9
-0.331, -2.950e-9
-0.332, -2.951e-9
-0.333, -2.951e-9
-0.334, -2.953e-9
-0.335, -2.957e-9
-0.336, -2.957e-9
-0.337, -2.958e-9
-0.338, -2.959e-9
-0.339, -2.963e-9
-0.340, -2.965e-9
-0.341, -2.966e-9
-0.342, -2.968e-9
-0.343, -2.970e-9
-0.344, -2.971e-9
-0.345, -2.973e-9
-0.346, -2.973e-9
-0.347, -2.975e-9
-0.348, -2.978e-9
-0.349, -2.978e-9
-0.350, -2.979e-9
-0.351, -2.981e-9
-0.352, -2.983e-9
-0.353, -2.986e-9
-0.354, -2.987e-9
-0.355, -2.988e-9
-0.356, -2.991e-9
-0.357, -2.992e-9
-0.358, -2.993e-9
-0.359, -2.993e-9
-0.360, -2.995e-9
-0.361, -2.998e-9
-0.362, -3.000e-9
-0.363, -3.001e-9
-0.364, -3.003e-9
-0.365, -3.005e-9
-0.366, -3.005e-9
-0.367, -3.006e-9
-0.368, -3.007e-9
-0.369, -3.011e-9
-0.370, -3.012e-9
-0.371, -3.012e-9
-0.372, -3.013e-9
-0.373, -3.015e-9
-0.374, -3.016e-9
-0.375, -3.018e-9
-0.376, -3.019e-9
-0.377, -3.023e-9
-0.378, -3.024e-9
-0.379, -3.025e-9
-0.380, -3.027e-9
-0.381, -3.028e-9
-0.382, -3.030e-9
-0.383, -3.030e-9
-0.384, -3.030e-9
-0.385, -3.032e-9
-0.386, -3.034e-9
-0.387, -3.034e-9
-0.388, -3.037e-9
-0.389, -3.039e-9
-0.390, -3.041e-9
-0.391, -3.042e-9
-0.392, -3.043e-9
-0.393, -3.045e-9
-0.394, -3.047e-9
-0.395, -3.049e-9
-0.396, -3.050e-9
-0.397, -3.051e-9
-0.398, -3.054e-9
-0.399, -3.057e-9
-0.400, -3.059e-9
-0.401, -3.060e-9
-0.402, -3.062e-9
-0.403, -3.064e-9
-0.404, -3.066e-9
-0.405, -3.069e-9
-0.406, -3.070e-9
-0.407, -3.072e-9
-0.408, -3.072e-9
-0.409, -3.075e-9
-0.410, -3.076e-9
-0.411, -3.078e-9
-0.412, -3.080e-9
-0.413, -3.082e-9
-0.414, -3.084e-9
-0.415, -3.086e-9
-0.416, -3.088e-9
-0.417, -3.089e-9
-0.418, -3.091e-9
-0.419, -3.094e-9
-0.420, -3.095e-9
-0.421, -3.096e-9
-0.422, -3.099e-9
-0.423, -3.100e-9
-0.424, -3.102e-9
-0.425, -3.104e-9
-0.426, -3.105e-9
-0.427, -3.108e-9
-0.428, -3.110e-9
-0.429, -3.112e-9
-0.430, -3.114e-9
-0.431, -3.115e-9
-0.432, -3.118e-9
-0.433, -3.118e-9
-0.434, -3.118e-9
-0.435, -3.121e-9
-0.436, -3.123e-9
-0.437, -3.125e-9
-0.438, -3.128e-9
-0.439, -3.129e-9
-0.440, -3.131e-9
-0.441, -3.133e-9
-0.442, -3.136e-9
-0.443, -3.137e-9
-0.444, -3.138e-9
-0.445, -3.139e-9
-0.446, -3.142e-9
-0.447, -3.146e-9
-0.448, -3.147e-9
-0.449, -3.149e-9
-0.450, -3.152e-9
-0.451, -3.155e-9
-0.452, -3.154e-9
-0.453, -3.157e-9
-0.454, -3.161e-9
-0.455, -3.163e-9
-0.456, -3.166e-9
-0.457, -3.169e-9
-0.458, -3.168e-9
-0.459, -3.172e-9
-0.460, -3.174e-9
-0.461, -3.174e-9
-0.462, -3.178e-9
-0.463, -3.180e-9
-0.464, -3.184e-9
-0.465, -3.186e-9
-0.466, -3.187e-9
-0.467, -3.189e-9
-0.468, -3.193e-9
-0.469, -3.195e-9
-0.470, -3.197e-9
-0.471, -3.200e-9
-0.472, -3.202e-9
-0.473, -3.204e-9
-0.474, -3.206e-9
-0.475, -3.209e-9
-0.476, -3.210e-9
-0.477, -3.213e-9
-0.478, -3.215e-9
-0.479, -3.217e-9
-0.480, -3.221e-9
-0.481, -3.224e-9
-0.482, -3.227e-9
-0.483, -3.229e-9
-0.484, -3.232e-9
-0.485, -3.234e-9
-0.486, -3.235e-9
-0.487, -3.238e-9
-0.488, -3.240e-9
-0.489, -3.241e-9
-0.490, -3.243e-9
-0.491, -3.246e-9
-0.492, -3.250e-9
-0.493, -3.251e-9
-0.494, -3.253e-9
-0.495, -3.255e-9
-0.496, -3.257e-9
-0.497, -3.259e-9
-0.498, -3.262e-9
-0.499, -3.264e-9
