Mar. 7, 2025   14:41:43
Cyclic Voltammetry
File: cv surface incubated 8.bin
Data Source:  Experiment
Instrument Model:  CHI920C
Ref. Electrode: 
Header: 
Note: 

Init E (V) = -0.5
High E (V) = 0.5
Low E (V) = -0.5
Init P/N = P
Scan Rate (V/s) = 0.05
Segment = 2
Sample Interval (V) = 0.001
Quiet Time (sec) = 10
Sensitivity (A/V) = 1e-8

Results:

Channel 1:
Segment 1:

Segment 2:

Potential/V, Current/A

-0.500, -2.112e-9
-0.499, -2.019e-9
-0.498, -1.966e-9
-0.497, -1.934e-9
-0.496, -1.909e-9
-0.495, -1.887e-9
-0.494, -1.867e-9
-0.493, -1.847e-9
-0.492, -1.829e-9
-0.491, -1.811e-9
-0.490, -1.794e-9
-0.489, -1.777e-9
-0.488, -1.760e-9
-0.487, -1.745e-9
-0.486, -1.731e-9
-0.485, -1.717e-9
-0.484, -1.701e-9
-0.483, -1.687e-9
-0.482, -1.673e-9
-0.481, -1.660e-9
-0.480, -1.645e-9
-0.479, -1.630e-9
-0.478, -1.620e-9
-0.477, -1.607e-9
-0.476, -1.594e-9
-0.475, -1.580e-9
-0.474, -1.568e-9
-0.473, -1.558e-9
-0.472, -1.545e-9
-0.471, -1.532e-9
-0.470, -1.521e-9
-0.469, -1.509e-9
-0.468, -1.497e-9
-0.467, -1.485e-9
-0.466, -1.474e-9
-0.465, -1.463e-9
-0.464, -1.451e-9
-0.463, -1.439e-9
-0.462, -1.430e-9
-0.461, -1.418e-9
-0.460, -1.407e-9
-0.459, -1.395e-9
-0.458, -1.385e-9
-0.457, -1.375e-9
-0.456, -1.364e-9
-0.455, -1.354e-9
-0.454, -1.343e-9
-0.453, -1.332e-9
-0.452, -1.321e-9
-0.451, -1.311e-9
-0.450, -1.301e-9
-0.449, -1.291e-9
-0.448, -1.281e-9
-0.447, -1.272e-9
-0.446, -1.261e-9
-0.445, -1.251e-9
-0.444, -1.242e-9
-0.443, -1.232e-9
-0.442, -1.221e-9
-0.441, -1.211e-9
-0.440, -1.201e-9
-0.439, -1.192e-9
-0.438, -1.183e-9
-0.437, -1.173e-9
-0.436, -1.162e-9
-0.435, -1.155e-9
-0.434, -1.145e-9
-0.433, -1.136e-9
-0.432, -1.127e-9
-0.431, -1.117e-9
-0.430, -1.107e-9
-0.429, -1.098e-9
-0.428, -1.089e-9
-0.427, -1.080e-9
-0.426, -1.072e-9
-0.425, -1.063e-9
-0.424, -1.053e-9
-0.423, -1.043e-9
-0.422, -1.036e-9
-0.421, -1.027e-9
-0.420, -1.016e-9
-0.419, -1.009e-9
-0.418, -1.000e-9
-0.417, -9.908e-10
-0.416, -9.818e-10
-0.415, -9.723e-10
-0.414, -9.630e-10
-0.413, -9.547e-10
-0.412, -9.465e-10
-0.411, -9.376e-10
-0.410, -9.288e-10
-0.409, -9.204e-10
-0.408, -9.118e-10
-0.407, -9.030e-10
-0.406, -8.948e-10
-0.405, -8.867e-10
-0.404, -8.784e-10
-0.403, -8.703e-10
-0.402, -8.606e-10
-0.401, -8.529e-10
-0.400, -8.453e-10
-0.399, -8.371e-10
-0.398, -8.270e-10
-0.397, -8.182e-10
-0.396, -8.108e-10
-0.395, -8.031e-10
-0.394, -7.937e-10
-0.393, -7.862e-10
-0.392, -7.778e-10
-0.391, -7.703e-10
-0.390, -7.623e-10
-0.389, -7.533e-10
-0.388, -7.460e-10
-0.387, -7.391e-10
-0.386, -7.305e-10
-0.385, -7.222e-10
-0.384, -7.139e-10
-0.383, -7.070e-10
-0.382, -7.001e-10
-0.381, -6.920e-10
-0.380, -6.847e-10
-0.379, -6.771e-10
-0.378, -6.692e-10
-0.377, -6.607e-10
-0.376, -6.533e-10
-0.375, -6.452e-10
-0.374, -6.387e-10
-0.373, -6.307e-10
-0.372, -6.219e-10
-0.371, -6.156e-10
-0.370, -6.075e-10
-0.369, -6.003e-10
-0.368, -5.925e-10
-0.367, -5.843e-10
-0.366, -5.768e-10
-0.365, -5.687e-10
-0.364, -5.622e-10
-0.363, -5.545e-10
-0.362, -5.472e-10
-0.361, -5.395e-10
-0.360, -5.312e-10
-0.359, -5.241e-10
-0.358, -5.178e-10
-0.357, -5.089e-10
-0.356, -5.013e-10
-0.355, -4.952e-10
-0.354, -4.881e-10
-0.353, -4.804e-10
-0.352, -4.731e-10
-0.351, -4.657e-10
-0.350, -4.589e-10
-0.349, -4.517e-10
-0.348, -4.435e-10
-0.347, -4.370e-10
-0.346, -4.307e-10
-0.345, -4.243e-10
-0.344, -4.160e-10
-0.343, -4.092e-10
-0.342, -4.038e-10
-0.341, -3.955e-10
-0.340, -3.882e-10
-0.339, -3.824e-10
-0.338, -3.744e-10
-0.337, -3.680e-10
-0.336, -3.605e-10
-0.335, -3.528e-10
-0.334, -3.465e-10
-0.333, -3.400e-10
-0.332, -3.333e-10
-0.331, -3.262e-10
-0.330, -3.194e-10
-0.329, -3.133e-10
-0.328, -3.063e-10
-0.327, -2.988e-10
-0.326, -2.924e-10
-0.325, -2.848e-10
-0.324, -2.779e-10
-0.323, -2.718e-10
-0.322, -2.652e-10
-0.321, -2.576e-10
-0.320, -2.521e-10
-0.319, -2.463e-10
-0.318, -2.395e-10
-0.317, -2.333e-10
-0.316, -2.279e-10
-0.315, -2.213e-10
-0.314, -2.142e-10
-0.313, -2.081e-10
-0.312, -2.015e-10
-0.311, -1.950e-10
-0.310, -1.898e-10
-0.309, -1.816e-10
-0.308, -1.756e-10
-0.307, -1.652e-10
-0.306, -1.591e-10
-0.305, -1.549e-10
-0.304, -1.480e-10
-0.303, -1.411e-10
-0.302, -1.356e-10
-0.301, -1.289e-10
-0.300, -1.219e-10
-0.299, -1.159e-10
-0.298, -1.093e-10
-0.297, -1.046e-10
-0.296, -9.805e-11
-0.295, -9.117e-11
-0.294, -8.544e-11
-0.293, -7.985e-11
-0.292, -7.353e-11
-0.291, -6.722e-11
-0.290, -6.092e-11
-0.289, -5.586e-11
-0.288, -4.941e-11
-0.287, -4.373e-11
-0.286, -3.793e-11
-0.285, -3.314e-11
-0.284, -2.758e-11
-0.283, -2.237e-11
-0.282, -1.503e-11
-0.281, -1.036e-11
-0.280, -4.285e-12
-0.279, 2.519e-12
-0.278, 8.387e-12
-0.277, 1.609e-11
-0.276, 2.247e-11
-0.275, 2.970e-11
-0.274, 3.449e-11
-0.273, 4.071e-11
-0.272, 4.655e-11
-0.271, 5.230e-11
-0.270, 5.804e-11
-0.269, 6.448e-11
-0.268, 6.983e-11
-0.267, 7.537e-11
-0.266, 8.241e-11
-0.265, 8.791e-11
-0.264, 9.298e-11
-0.263, 9.886e-11
-0.262, 1.038e-10
-0.261, 1.101e-10
-0.260, 1.155e-10
-0.259, 1.210e-10
-0.258, 1.262e-10
-0.257, 1.326e-10
-0.256, 1.377e-10
-0.255, 1.429e-10
-0.254, 1.485e-10
-0.253, 1.548e-10
-0.252, 1.613e-10
-0.251, 1.670e-10
-0.250, 1.727e-10
-0.249, 1.787e-10
-0.248, 1.851e-10
-0.247, 1.905e-10
-0.246, 1.946e-10
-0.245, 2.009e-10
-0.244, 2.061e-10
-0.243, 2.107e-10
-0.242, 2.165e-10
-0.241, 2.215e-10
-0.240, 2.281e-10
-0.239, 2.326e-10
-0.238, 2.385e-10
-0.237, 2.452e-10
-0.236, 2.501e-10
-0.235, 2.551e-10
-0.234, 2.618e-10
-0.233, 2.670e-10
-0.232, 2.718e-10
-0.231, 2.769e-10
-0.230, 2.814e-10
-0.229, 2.877e-10
-0.228, 2.932e-10
-0.227, 2.971e-10
-0.226, 3.032e-10
-0.225, 3.089e-10
-0.224, 3.148e-10
-0.223, 3.203e-10
-0.222, 3.259e-10
-0.221, 3.320e-10
-0.220, 3.364e-10
-0.219, 3.411e-10
-0.218, 3.470e-10
-0.217, 3.519e-10
-0.216, 3.581e-10
-0.215, 3.630e-10
-0.214, 3.670e-10
-0.213, 3.734e-10
-0.212, 3.794e-10
-0.211, 3.841e-10
-0.210, 3.893e-10
-0.209, 3.952e-10
-0.208, 3.999e-10
-0.207, 4.051e-10
-0.206, 4.104e-10
-0.205, 4.146e-10
-0.204, 4.181e-10
-0.203, 4.253e-10
-0.202, 4.314e-10
-0.201, 4.364e-10
-0.200, 4.422e-10
-0.199, 4.481e-10
-0.198, 4.538e-10
-0.197, 4.583e-10
-0.196, 4.624e-10
-0.195, 4.680e-10
-0.194, 4.737e-10
-0.193, 4.782e-10
-0.192, 4.825e-10
-0.191, 4.885e-10
-0.190, 4.940e-10
-0.189, 4.997e-10
-0.188, 5.034e-10
-0.187, 5.092e-10
-0.186, 5.140e-10
-0.185, 5.185e-10
-0.184, 5.247e-10
-0.183, 5.301e-10
-0.182, 5.350e-10
-0.181, 5.399e-10
-0.180, 5.456e-10
-0.179, 5.502e-10
-0.178, 5.566e-10
-0.177, 5.611e-10
-0.176, 5.664e-10
-0.175, 5.715e-10
-0.174, 5.766e-10
-0.173, 5.815e-10
-0.172, 5.864e-10
-0.171, 5.913e-10
-0.170, 5.960e-10
-0.169, 6.016e-10
-0.168, 6.069e-10
-0.167, 6.119e-10
-0.166, 6.162e-10
-0.165, 6.221e-10
-0.164, 6.277e-10
-0.163, 6.314e-10
-0.162, 6.362e-10
-0.161, 6.416e-10
-0.160, 6.468e-10
-0.159, 6.520e-10
-0.158, 6.573e-10
-0.157, 6.632e-10
-0.156, 6.683e-10
-0.155, 6.730e-10
-0.154, 6.786e-10
-0.153, 6.846e-10
-0.152, 6.899e-10
-0.151, 6.941e-10
-0.150, 6.982e-10
-0.149, 7.050e-10
-0.148, 7.088e-10
-0.147, 7.141e-10
-0.146, 7.194e-10
-0.145, 7.245e-10
-0.144, 7.280e-10
-0.143, 7.328e-10
-0.142, 7.378e-10
-0.141, 7.424e-10
-0.140, 7.468e-10
-0.139, 7.525e-10
-0.138, 7.574e-10
-0.137, 7.619e-10
-0.136, 7.674e-10
-0.135, 7.750e-10
-0.134, 7.799e-10
-0.133, 7.851e-10
-0.132, 7.902e-10
-0.131, 7.950e-10
-0.130, 8.007e-10
-0.129, 8.066e-10
-0.128, 8.111e-10
-0.127, 8.161e-10
-0.126, 8.195e-10
-0.125, 8.245e-10
-0.124, 8.288e-10
-0.123, 8.344e-10
-0.122, 8.405e-10
-0.121, 8.451e-10
-0.120, 8.510e-10
-0.119, 8.557e-10
-0.118, 8.608e-10
-0.117, 8.664e-10
-0.116, 8.711e-10
-0.115, 8.751e-10
-0.114, 8.807e-10
-0.113, 8.854e-10
-0.112, 8.905e-10
-0.111, 8.955e-10
-0.110, 9.008e-10
-0.109, 9.060e-10
-0.108, 9.099e-10
-0.107, 9.145e-10
-0.106, 9.201e-10
-0.105, 9.247e-10
-0.104, 9.299e-10
-0.103, 9.352e-10
-0.102, 9.457e-10
-0.101, 9.489e-10
-0.100, 9.532e-10
-0.099, 9.580e-10
-0.098, 9.643e-10
-0.097, 9.701e-10
-0.096, 9.748e-10
-0.095, 9.803e-10
-0.094, 9.853e-10
-0.093, 9.908e-10
-0.092, 9.950e-10
-0.091, 9.990e-10
-0.090, 1.004e-9
-0.089, 1.008e-9
-0.088, 1.013e-9
-0.087, 1.019e-9
-0.086, 1.022e-9
-0.085, 1.027e-9
-0.084, 1.033e-9
-0.083, 1.038e-9
-0.082, 1.043e-9
-0.081, 1.048e-9
-0.080, 1.053e-9
-0.079, 1.058e-9
-0.078, 1.064e-9
-0.077, 1.069e-9
-0.076, 1.074e-9
-0.075, 1.081e-9
-0.074, 1.087e-9
-0.073, 1.091e-9
-0.072, 1.097e-9
-0.071, 1.103e-9
-0.070, 1.107e-9
-0.069, 1.113e-9
-0.068, 1.118e-9
-0.067, 1.123e-9
-0.066, 1.127e-9
-0.065, 1.132e-9
-0.064, 1.137e-9
-0.063, 1.143e-9
-0.062, 1.148e-9
-0.061, 1.152e-9
-0.060, 1.157e-9
-0.059, 1.162e-9
-0.058, 1.167e-9
-0.057, 1.173e-9
-0.056, 1.178e-9
-0.055, 1.184e-9
-0.054, 1.187e-9
-0.053, 1.192e-9
-0.052, 1.198e-9
-0.051, 1.201e-9
-0.050, 1.206e-9
-0.049, 1.212e-9
-0.048, 1.217e-9
-0.047, 1.222e-9
-0.046, 1.228e-9
-0.045, 1.233e-9
-0.044, 1.239e-9
-0.043, 1.244e-9
-0.042, 1.250e-9
-0.041, 1.254e-9
-0.040, 1.261e-9
-0.039, 1.266e-9
-0.038, 1.271e-9
-0.037, 1.276e-9
-0.036, 1.282e-9
-0.035, 1.287e-9
-0.034, 1.291e-9
-0.033, 1.295e-9
-0.032, 1.301e-9
-0.031, 1.307e-9
-0.030, 1.312e-9
-0.029, 1.316e-9
-0.028, 1.321e-9
-0.027, 1.325e-9
-0.026, 1.331e-9
-0.025, 1.334e-9
-0.024, 1.341e-9
-0.023, 1.346e-9
-0.022, 1.350e-9
-0.021, 1.357e-9
-0.020, 1.362e-9
-0.019, 1.368e-9
-0.018, 1.374e-9
-0.017, 1.379e-9
-0.016, 1.383e-9
-0.015, 1.388e-9
-0.014, 1.394e-9
-0.013, 1.399e-9
-0.012, 1.403e-9
-0.011, 1.408e-9
-0.010, 1.415e-9
-0.009, 1.419e-9
-0.008, 1.424e-9
-0.007, 1.430e-9
-0.006, 1.434e-9
-0.005, 1.439e-9
-0.004, 1.445e-9
-0.003, 1.449e-9
-0.002, 1.455e-9
-0.001, 1.460e-9
0.000, 1.460e-9
0.001, 1.465e-9
0.002, 1.472e-9
0.003, 1.478e-9
0.004, 1.484e-9
0.005, 1.488e-9
0.006, 1.494e-9
0.007, 1.499e-9
0.008, 1.504e-9
0.009, 1.509e-9
0.010, 1.514e-9
0.011, 1.520e-9
0.012, 1.525e-9
0.013, 1.529e-9
0.014, 1.535e-9
0.015, 1.540e-9
0.016, 1.546e-9
0.017, 1.550e-9
0.018, 1.555e-9
0.019, 1.562e-9
0.020, 1.567e-9
0.021, 1.571e-9
0.022, 1.577e-9
0.023, 1.581e-9
0.024, 1.586e-9
0.025, 1.591e-9
0.026, 1.595e-9
0.027, 1.600e-9
0.028, 1.605e-9
0.029, 1.611e-9
0.030, 1.616e-9
0.031, 1.622e-9
0.032, 1.626e-9
0.033, 1.632e-9
0.034, 1.637e-9
0.035, 1.641e-9
0.036, 1.646e-9
0.037, 1.652e-9
0.038, 1.657e-9
0.039, 1.661e-9
0.040, 1.668e-9
0.041, 1.672e-9
0.042, 1.677e-9
0.043, 1.682e-9
0.044, 1.688e-9
0.045, 1.693e-9
0.046, 1.698e-9
0.047, 1.703e-9
0.048, 1.707e-9
0.049, 1.712e-9
0.050, 1.719e-9
0.051, 1.723e-9
0.052, 1.728e-9
0.053, 1.733e-9
0.054, 1.738e-9
0.055, 1.743e-9
0.056, 1.749e-9
0.057, 1.753e-9
0.058, 1.759e-9
0.059, 1.763e-9
0.060, 1.768e-9
0.061, 1.774e-9
0.062, 1.780e-9
0.063, 1.784e-9
0.064, 1.789e-9
0.065, 1.794e-9
0.066, 1.799e-9
0.067, 1.805e-9
0.068, 1.811e-9
0.069, 1.816e-9
0.070, 1.821e-9
0.071, 1.825e-9
0.072, 1.831e-9
0.073, 1.836e-9
0.074, 1.841e-9
0.075, 1.849e-9
0.076, 1.854e-9
0.077, 1.859e-9
0.078, 1.865e-9
0.079, 1.870e-9
0.080, 1.875e-9
0.081, 1.880e-9
0.082, 1.886e-9
0.083, 1.891e-9
0.084, 1.897e-9
0.085, 1.902e-9
0.086, 1.907e-9
0.087, 1.912e-9
0.088, 1.917e-9
0.089, 1.922e-9
0.090, 1.926e-9
0.091, 1.933e-9
0.092, 1.939e-9
0.093, 1.944e-9
0.094, 1.952e-9
0.095, 1.957e-9
0.096, 1.964e-9
0.097, 1.970e-9
0.098, 1.976e-9
0.099, 1.983e-9
0.100, 1.990e-9
0.101, 1.997e-9
0.102, 2.006e-9
0.103, 2.019e-9
0.104, 2.025e-9
0.105, 2.033e-9
0.106, 2.042e-9
0.107, 2.049e-9
0.108, 2.055e-9
0.109, 2.062e-9
0.110, 2.069e-9
0.111, 2.073e-9
0.112, 2.077e-9
0.113, 2.080e-9
0.114, 2.081e-9
0.115, 2.084e-9
0.116, 2.088e-9
0.117, 2.090e-9
0.118, 2.093e-9
0.119, 2.096e-9
0.120, 2.101e-9
0.121, 2.107e-9
0.122, 2.113e-9
0.123, 2.118e-9
0.124, 2.124e-9
0.125, 2.131e-9
0.126, 2.137e-9
0.127, 2.143e-9
0.128, 2.150e-9
0.129, 2.156e-9
0.130, 2.163e-9
0.131, 2.168e-9
0.132, 2.175e-9
0.133, 2.183e-9
0.134, 2.189e-9
0.135, 2.196e-9
0.136, 2.202e-9
0.137, 2.209e-9
0.138, 2.215e-9
0.139, 2.222e-9
0.140, 2.229e-9
0.141, 2.235e-9
0.142, 2.242e-9
0.143, 2.248e-9
0.144, 2.255e-9
0.145, 2.262e-9
0.146, 2.269e-9
0.147, 2.277e-9
0.148, 2.284e-9
0.149, 2.290e-9
0.150, 2.297e-9
0.151, 2.304e-9
0.152, 2.311e-9
0.153, 2.318e-9
0.154, 2.324e-9
0.155, 2.332e-9
0.156, 2.339e-9
0.157, 2.346e-9
0.158, 2.354e-9
0.159, 2.360e-9
0.160, 2.368e-9
0.161, 2.375e-9
0.162, 2.382e-9
0.163, 2.390e-9
0.164, 2.397e-9
0.165, 2.403e-9
0.166, 2.410e-9
0.167, 2.417e-9
0.168, 2.425e-9
0.169, 2.432e-9
0.170, 2.439e-9
0.171, 2.447e-9
0.172, 2.456e-9
0.173, 2.462e-9
0.174, 2.470e-9
0.175, 2.477e-9
0.176, 2.485e-9
0.177, 2.491e-9
0.178, 2.499e-9
0.179, 2.506e-9
0.180, 2.514e-9
0.181, 2.521e-9
0.182, 2.528e-9
0.183, 2.535e-9
0.184, 2.543e-9
0.185, 2.551e-9
0.186, 2.557e-9
0.187, 2.565e-9
0.188, 2.573e-9
0.189, 2.581e-9
0.190, 2.588e-9
0.191, 2.596e-9
0.192, 2.603e-9
0.193, 2.611e-9
0.194, 2.619e-9
0.195, 2.626e-9
0.196, 2.631e-9
0.197, 2.639e-9
0.198, 2.646e-9
0.199, 2.654e-9
0.200, 2.662e-9
0.201, 2.669e-9
0.202, 2.676e-9
0.203, 2.683e-9
0.204, 2.689e-9
0.205, 2.691e-9
0.206, 2.699e-9
0.207, 2.707e-9
0.208, 2.714e-9
0.209, 2.721e-9
0.210, 2.729e-9
0.211, 2.737e-9
0.212, 2.744e-9
0.213, 2.751e-9
0.214, 2.759e-9
0.215, 2.765e-9
0.216, 2.773e-9
0.217, 2.779e-9
0.218, 2.785e-9
0.219, 2.793e-9
0.220, 2.800e-9
0.221, 2.807e-9
0.222, 2.813e-9
0.223, 2.820e-9
0.224, 2.827e-9
0.225, 2.834e-9
0.226, 2.839e-9
0.227, 2.847e-9
0.228, 2.854e-9
0.229, 2.861e-9
0.230, 2.867e-9
0.231, 2.873e-9
0.232, 2.881e-9
0.233, 2.888e-9
0.234, 2.895e-9
0.235, 2.901e-9
0.236, 2.908e-9
0.237, 2.915e-9
0.238, 2.922e-9
0.239, 2.928e-9
0.240, 2.934e-9
0.241, 2.941e-9
0.242, 2.947e-9
0.243, 2.952e-9
0.244, 2.959e-9
0.245, 2.966e-9
0.246, 2.973e-9
0.247, 2.978e-9
0.248, 2.984e-9
0.249, 2.992e-9
0.250, 2.998e-9
0.251, 3.005e-9
0.252, 3.010e-9
0.253, 3.016e-9
0.254, 3.022e-9
0.255, 3.029e-9
0.256, 3.035e-9
0.257, 3.041e-9
0.258, 3.048e-9
0.259, 3.055e-9
0.260, 3.061e-9
0.261, 3.066e-9
0.262, 3.073e-9
0.263, 3.080e-9
0.264, 3.086e-9
0.265, 3.092e-9
0.266, 3.097e-9
0.267, 3.104e-9
0.268, 3.110e-9
0.269, 3.114e-9
0.270, 3.120e-9
0.271, 3.125e-9
0.272, 3.131e-9
0.273, 3.136e-9
0.274, 3.141e-9
0.275, 3.148e-9
0.276, 3.153e-9
0.277, 3.159e-9
0.278, 3.164e-9
0.279, 3.171e-9
0.280, 3.177e-9
0.281, 3.183e-9
0.282, 3.189e-9
0.283, 3.195e-9
0.284, 3.201e-9
0.285, 3.206e-9
0.286, 3.212e-9
0.287, 3.217e-9
0.288, 3.223e-9
0.289, 3.228e-9
0.290, 3.234e-9
0.291, 3.240e-9
0.292, 3.245e-9
0.293, 3.251e-9
0.294, 3.257e-9
0.295, 3.262e-9
0.296, 3.267e-9
0.297, 3.272e-9
0.298, 3.277e-9
0.299, 3.282e-9
0.300, 3.287e-9
0.301, 3.293e-9
0.302, 3.298e-9
0.303, 3.304e-9
0.304, 3.309e-9
0.305, 3.315e-9
0.306, 3.320e-9
0.307, 3.327e-9
0.308, 3.336e-9
0.309, 3.340e-9
0.310, 3.345e-9
0.311, 3.349e-9
0.312, 3.354e-9
0.313, 3.360e-9
0.314, 3.366e-9
0.315, 3.371e-9
0.316, 3.375e-9
0.317, 3.379e-9
0.318, 3.385e-9
0.319, 3.390e-9
0.320, 3.395e-9
0.321, 3.400e-9
0.322, 3.406e-9
0.323, 3.410e-9
0.324, 3.415e-9
0.325, 3.419e-9
0.326, 3.424e-9
0.327, 3.431e-9
0.328, 3.436e-9
0.329, 3.441e-9
0.330, 3.446e-9
0.331, 3.451e-9
0.332, 3.457e-9
0.333, 3.461e-9
0.334, 3.466e-9
0.335, 3.471e-9
0.336, 3.476e-9
0.337, 3.480e-9
0.338, 3.486e-9
0.339, 3.491e-9
0.340, 3.497e-9
0.341, 3.501e-9
0.342, 3.506e-9
0.343, 3.510e-9
0.344, 3.516e-9
0.345, 3.522e-9
0.346, 3.525e-9
0.347, 3.531e-9
0.348, 3.536e-9
0.349, 3.541e-9
0.350, 3.546e-9
0.351, 3.550e-9
0.352, 3.556e-9
0.353, 3.561e-9
0.354, 3.565e-9
0.355, 3.569e-9
0.356, 3.574e-9
0.357, 3.580e-9
0.358, 3.585e-9
0.359, 3.589e-9
0.360, 3.595e-9
0.361, 3.601e-9
0.362, 3.605e-9
0.363, 3.611e-9
0.364, 3.617e-9
0.365, 3.623e-9
0.366, 3.627e-9
0.367, 3.632e-9
0.368, 3.636e-9
0.369, 3.641e-9
0.370, 3.645e-9
0.371, 3.649e-9
0.372, 3.654e-9
0.373, 3.659e-9
0.374, 3.665e-9
0.375, 3.669e-9
0.376, 3.675e-9
0.377, 3.680e-9
0.378, 3.685e-9
0.379, 3.691e-9
0.380, 3.696e-9
0.381, 3.701e-9
0.382, 3.705e-9
0.383, 3.710e-9
0.384, 3.716e-9
0.385, 3.722e-9
0.386, 3.727e-9
0.387, 3.733e-9
0.388, 3.737e-9
0.389, 3.744e-9
0.390, 3.750e-9
0.391, 3.756e-9
0.392, 3.762e-9
0.393, 3.767e-9
0.394, 3.772e-9
0.395, 3.778e-9
0.396, 3.785e-9
0.397, 3.789e-9
0.398, 3.794e-9
0.399, 3.800e-9
0.400, 3.806e-9
0.401, 3.813e-9
0.402, 3.819e-9
0.403, 3.824e-9
0.404, 3.831e-9
0.405, 3.837e-9
0.406, 3.842e-9
0.407, 3.848e-9
0.408, 3.855e-9
0.409, 3.859e-9
0.410, 3.857e-9
0.411, 3.865e-9
0.412, 3.872e-9
0.413, 3.878e-9
0.414, 3.884e-9
0.415, 3.890e-9
0.416, 3.896e-9
0.417, 3.903e-9
0.418, 3.909e-9
0.419, 3.914e-9
0.420, 3.920e-9
0.421, 3.926e-9
0.422, 3.931e-9
0.423, 3.935e-9
0.424, 3.942e-9
0.425, 3.947e-9
0.426, 3.953e-9
0.427, 3.959e-9
0.428, 3.964e-9
0.429, 3.969e-9
0.430, 3.975e-9
0.431, 3.981e-9
0.432, 3.986e-9
0.433, 3.992e-9
0.434, 3.998e-9
0.435, 4.004e-9
0.436, 4.009e-9
0.437, 4.016e-9
0.438, 4.021e-9
0.439, 4.026e-9
0.440, 4.034e-9
0.441, 4.039e-9
0.442, 4.044e-9
0.443, 4.051e-9
0.444, 4.057e-9
0.445, 4.062e-9
0.446, 4.067e-9
0.447, 4.073e-9
0.448, 4.080e-9
0.449, 4.085e-9
0.450, 4.092e-9
0.451, 4.098e-9
0.452, 4.103e-9
0.453, 4.110e-9
0.454, 4.115e-9
0.455, 4.121e-9
0.456, 4.127e-9
0.457, 4.132e-9
0.458, 4.138e-9
0.459, 4.145e-9
0.460, 4.151e-9
0.461, 4.156e-9
0.462, 4.162e-9
0.463, 4.168e-9
0.464, 4.174e-9
0.465, 4.180e-9
0.466, 4.187e-9
0.467, 4.194e-9
0.468, 4.201e-9
0.469, 4.206e-9
0.470, 4.212e-9
0.471, 4.218e-9
0.472, 4.225e-9
0.473, 4.231e-9
0.474, 4.237e-9
0.475, 4.244e-9
0.476, 4.251e-9
0.477, 4.257e-9
0.478, 4.265e-9
0.479, 4.270e-9
0.480, 4.277e-9
0.481, 4.283e-9
0.482, 4.290e-9
0.483, 4.296e-9
0.484, 4.303e-9
0.485, 4.310e-9
0.486, 4.317e-9
0.487, 4.324e-9
0.488, 4.331e-9
0.489, 4.338e-9
0.490, 4.344e-9
0.491, 4.352e-9
0.492, 4.360e-9
0.493, 4.367e-9
0.494, 4.375e-9
0.495, 4.382e-9
0.496, 4.388e-9
0.497, 4.395e-9
0.498, 4.404e-9
0.499, 4.413e-9
0.500, 4.373e-9
0.499, 4.183e-9
0.498, 4.061e-9
0.497, 3.984e-9
0.496, 3.920e-9
0.495, 3.861e-9
0.494, 3.811e-9
0.493, 3.761e-9
0.492, 3.714e-9
0.491, 3.670e-9
0.490, 3.629e-9
0.489, 3.589e-9
0.488, 3.549e-9
0.487, 3.512e-9
0.486, 3.476e-9
0.485, 3.441e-9
0.484, 3.406e-9
0.483, 3.373e-9
0.482, 3.341e-9
0.481, 3.308e-9
0.480, 3.277e-9
0.479, 3.247e-9
0.478, 3.218e-9
0.477, 3.188e-9
0.476, 3.162e-9
0.475, 3.134e-9
0.474, 3.106e-9
0.473, 3.080e-9
0.472, 3.054e-9
0.471, 3.027e-9
0.470, 3.002e-9
0.469, 2.977e-9
0.468, 2.953e-9
0.467, 2.929e-9
0.466, 2.904e-9
0.465, 2.881e-9
0.464, 2.859e-9
0.463, 2.835e-9
0.462, 2.812e-9
0.461, 2.790e-9
0.460, 2.768e-9
0.459, 2.747e-9
0.458, 2.725e-9
0.457, 2.704e-9
0.456, 2.682e-9
0.455, 2.661e-9
0.454, 2.640e-9
0.453, 2.620e-9
0.452, 2.600e-9
0.451, 2.580e-9
0.450, 2.560e-9
0.449, 2.541e-9
0.448, 2.522e-9
0.447, 2.502e-9
0.446, 2.484e-9
0.445, 2.466e-9
0.444, 2.446e-9
0.443, 2.428e-9
0.442, 2.409e-9
0.441, 2.391e-9
0.440, 2.372e-9
0.439, 2.354e-9
0.438, 2.337e-9
0.437, 2.320e-9
0.436, 2.302e-9
0.435, 2.285e-9
0.434, 2.267e-9
0.433, 2.249e-9
0.432, 2.233e-9
0.431, 2.216e-9
0.430, 2.199e-9
0.429, 2.182e-9
0.428, 2.165e-9
0.427, 2.149e-9
0.426, 2.133e-9
0.425, 2.116e-9
0.424, 2.100e-9
0.423, 2.085e-9
0.422, 2.069e-9
0.421, 2.052e-9
0.420, 2.036e-9
0.419, 2.021e-9
0.418, 2.005e-9
0.417, 1.989e-9
0.416, 1.973e-9
0.415, 1.958e-9
0.414, 1.944e-9
0.413, 1.928e-9
0.412, 1.913e-9
0.411, 1.898e-9
0.410, 1.885e-9
0.409, 1.875e-9
0.408, 1.857e-9
0.407, 1.841e-9
0.406, 1.827e-9
0.405, 1.811e-9
0.404, 1.797e-9
0.403, 1.782e-9
0.402, 1.767e-9
0.401, 1.754e-9
0.400, 1.740e-9
0.399, 1.724e-9
0.398, 1.709e-9
0.397, 1.696e-9
0.396, 1.683e-9
0.395, 1.669e-9
0.394, 1.654e-9
0.393, 1.640e-9
0.392, 1.625e-9
0.391, 1.610e-9
0.390, 1.596e-9
0.389, 1.581e-9
0.388, 1.568e-9
0.387, 1.555e-9
0.386, 1.541e-9
0.385, 1.528e-9
0.384, 1.515e-9
0.383, 1.502e-9
0.382, 1.489e-9
0.381, 1.475e-9
0.380, 1.461e-9
0.379, 1.449e-9
0.378, 1.435e-9
0.377, 1.423e-9
0.376, 1.410e-9
0.375, 1.397e-9
0.374, 1.385e-9
0.373, 1.372e-9
0.372, 1.358e-9
0.371, 1.346e-9
0.370, 1.333e-9
0.369, 1.319e-9
0.368, 1.307e-9
0.367, 1.294e-9
0.366, 1.282e-9
0.365, 1.269e-9
0.364, 1.256e-9
0.363, 1.243e-9
0.362, 1.231e-9
0.361, 1.219e-9
0.360, 1.206e-9
0.359, 1.194e-9
0.358, 1.182e-9
0.357, 1.170e-9
0.356, 1.158e-9
0.355, 1.145e-9
0.354, 1.134e-9
0.353, 1.121e-9
0.352, 1.109e-9
0.351, 1.097e-9
0.350, 1.086e-9
0.349, 1.073e-9
0.348, 1.062e-9
0.347, 1.049e-9
0.346, 1.038e-9
0.345, 1.027e-9
0.344, 1.015e-9
0.343, 1.003e-9
0.342, 9.918e-10
0.341, 9.801e-10
0.340, 9.688e-10
0.339, 9.568e-10
0.338, 9.450e-10
0.337, 9.332e-10
0.336, 9.228e-10
0.335, 9.115e-10
0.334, 9.002e-10
0.333, 8.893e-10
0.332, 8.781e-10
0.331, 8.666e-10
0.330, 8.547e-10
0.329, 8.437e-10
0.328, 8.332e-10
0.327, 8.215e-10
0.326, 8.101e-10
0.325, 7.994e-10
0.324, 7.888e-10
0.323, 7.772e-10
0.322, 7.669e-10
0.321, 7.562e-10
0.320, 7.452e-10
0.319, 7.340e-10
0.318, 7.233e-10
0.317, 7.107e-10
0.316, 6.994e-10
0.315, 6.886e-10
0.314, 6.774e-10
0.313, 6.671e-10
0.312, 6.577e-10
0.311, 6.474e-10
0.310, 6.359e-10
0.309, 6.259e-10
0.308, 6.161e-10
0.307, 6.002e-10
0.306, 5.925e-10
0.305, 5.853e-10
0.304, 5.765e-10
0.303, 5.669e-10
0.302, 5.564e-10
0.301, 5.453e-10
0.300, 5.370e-10
0.299, 5.281e-10
0.298, 5.187e-10
0.297, 5.078e-10
0.296, 4.967e-10
0.295, 4.872e-10
0.294, 4.776e-10
0.293, 4.678e-10
0.292, 4.581e-10
0.291, 4.493e-10
0.290, 4.398e-10
0.289, 4.304e-10
0.288, 4.210e-10
0.287, 4.108e-10
0.286, 4.018e-10
0.285, 3.936e-10
0.284, 3.848e-10
0.283, 3.750e-10
0.282, 3.674e-10
0.281, 3.586e-10
0.280, 3.501e-10
0.279, 3.409e-10
0.278, 3.318e-10
0.277, 3.225e-10
0.276, 3.142e-10
0.275, 3.059e-10
0.274, 2.965e-10
0.273, 2.890e-10
0.272, 2.806e-10
0.271, 2.724e-10
0.270, 2.644e-10
0.269, 2.562e-10
0.268, 2.480e-10
0.267, 2.398e-10
0.266, 2.307e-10
0.265, 2.228e-10
0.264, 2.151e-10
0.263, 2.057e-10
0.262, 1.980e-10
0.261, 1.898e-10
0.260, 1.820e-10
0.259, 1.744e-10
0.258, 1.665e-10
0.257, 1.584e-10
0.256, 1.519e-10
0.255, 1.442e-10
0.254, 1.357e-10
0.253, 1.277e-10
0.252, 1.214e-10
0.251, 1.149e-10
0.250, 1.070e-10
0.249, 9.763e-11
0.248, 9.158e-11
0.247, 8.458e-11
0.246, 7.750e-11
0.245, 6.940e-11
0.244, 6.248e-11
0.243, 5.690e-11
0.242, 5.009e-11
0.241, 4.248e-11
0.240, 3.457e-11
0.239, 2.808e-11
0.238, 2.169e-11
0.237, 1.397e-11
0.236, 8.261e-12
0.235, 1.359e-12
0.234, -5.192e-12
0.233, -1.088e-11
0.232, -1.733e-11
0.231, -2.379e-11
0.230, -2.976e-11
0.229, -3.634e-11
0.228, -4.248e-11
0.227, -4.799e-11
0.226, -5.537e-11
0.225, -6.129e-11
0.224, -6.685e-11
0.223, -7.248e-11
0.222, -7.940e-11
0.221, -8.490e-11
0.220, -9.001e-11
0.219, -9.571e-11
0.218, -1.012e-10
0.217, -1.067e-10
0.216, -1.118e-10
0.215, -1.170e-10
0.214, -1.222e-10
0.213, -1.283e-10
0.212, -1.332e-10
0.211, -1.381e-10
0.210, -1.430e-10
0.209, -1.485e-10
0.208, -1.530e-10
0.207, -1.585e-10
0.206, -1.624e-10
0.205, -1.648e-10
0.204, -1.681e-10
0.203, -1.754e-10
0.202, -1.800e-10
0.201, -1.847e-10
0.200, -1.902e-10
0.199, -1.958e-10
0.198, -2.004e-10
0.197, -2.056e-10
0.196, -2.119e-10
0.195, -2.155e-10
0.194, -2.205e-10
0.193, -2.247e-10
0.192, -2.302e-10
0.191, -2.369e-10
0.190, -2.414e-10
0.189, -2.450e-10
0.188, -2.505e-10
0.187, -2.565e-10
0.186, -2.602e-10
0.185, -2.638e-10
0.184, -2.680e-10
0.183, -2.738e-10
0.182, -2.773e-10
0.181, -2.820e-10
0.180, -2.864e-10
0.179, -2.912e-10
0.178, -2.961e-10
0.177, -3.003e-10
0.176, -3.034e-10
0.175, -3.082e-10
0.174, -3.129e-10
0.173, -3.180e-10
0.172, -3.217e-10
0.171, -3.259e-10
0.170, -3.302e-10
0.169, -3.351e-10
0.168, -3.399e-10
0.167, -3.423e-10
0.166, -3.471e-10
0.165, -3.521e-10
0.164, -3.555e-10
0.163, -3.585e-10
0.162, -3.636e-10
0.161, -3.693e-10
0.160, -3.733e-10
0.159, -3.769e-10
0.158, -3.804e-10
0.157, -3.846e-10
0.156, -3.888e-10
0.155, -3.935e-10
0.154, -3.969e-10
0.153, -4.018e-10
0.152, -4.070e-10
0.151, -4.116e-10
0.150, -4.153e-10
0.149, -4.209e-10
0.148, -4.253e-10
0.147, -4.292e-10
0.146, -4.327e-10
0.145, -4.374e-10
0.144, -4.404e-10
0.143, -4.451e-10
0.142, -4.497e-10
0.141, -4.529e-10
0.140, -4.559e-10
0.139, -4.610e-10
0.138, -4.655e-10
0.137, -4.701e-10
0.136, -4.739e-10
0.135, -4.789e-10
0.134, -4.840e-10
0.133, -4.886e-10
0.132, -4.923e-10
0.131, -4.966e-10
0.130, -5.019e-10
0.129, -5.054e-10
0.128, -5.087e-10
0.127, -5.142e-10
0.126, -5.201e-10
0.125, -5.241e-10
0.124, -5.279e-10
0.123, -5.319e-10
0.122, -5.367e-10
0.121, -5.419e-10
0.120, -5.456e-10
0.119, -5.498e-10
0.118, -5.543e-10
0.117, -5.598e-10
0.116, -5.637e-10
0.115, -5.672e-10
0.114, -5.724e-10
0.113, -5.779e-10
0.112, -5.816e-10
0.111, -5.865e-10
0.110, -5.912e-10
0.109, -5.968e-10
0.108, -6.017e-10
0.107, -6.055e-10
0.106, -6.099e-10
0.105, -6.146e-10
0.104, -6.208e-10
0.103, -6.264e-10
0.102, -6.335e-10
0.101, -6.360e-10
0.100, -6.401e-10
0.099, -6.451e-10
0.098, -6.496e-10
0.097, -6.547e-10
0.096, -6.604e-10
0.095, -6.645e-10
0.094, -6.687e-10
0.093, -6.738e-10
0.092, -6.780e-10
0.091, -6.841e-10
0.090, -6.889e-10
0.089, -6.925e-10
0.088, -6.983e-10
0.087, -7.035e-10
0.086, -7.079e-10
0.085, -7.125e-10
0.084, -7.180e-10
0.083, -7.242e-10
0.082, -7.295e-10
0.081, -7.341e-10
0.080, -7.393e-10
0.079, -7.447e-10
0.078, -7.502e-10
0.077, -7.554e-10
0.076, -7.598e-10
0.075, -7.662e-10
0.074, -7.719e-10
0.073, -7.766e-10
0.072, -7.816e-10
0.071, -7.864e-10
0.070, -7.917e-10
0.069, -7.980e-10
0.068, -8.027e-10
0.067, -8.071e-10
0.066, -8.135e-10
0.065, -8.196e-10
0.064, -8.248e-10
0.063, -8.304e-10
0.062, -8.359e-10
0.061, -8.425e-10
0.060, -8.491e-10
0.059, -8.539e-10
0.058, -8.596e-10
0.057, -8.661e-10
0.056, -8.713e-10
0.055, -8.771e-10
0.054, -8.810e-10
0.053, -8.880e-10
0.052, -8.935e-10
0.051, -8.990e-10
0.050, -9.049e-10
0.049, -9.109e-10
0.048, -9.163e-10
0.047, -9.224e-10
0.046, -9.282e-10
0.045, -9.343e-10
0.044, -9.398e-10
0.043, -9.461e-10
0.042, -9.527e-10
0.041, -9.575e-10
0.040, -9.638e-10
0.039, -9.709e-10
0.038, -9.755e-10
0.037, -9.823e-10
0.036, -9.882e-10
0.035, -9.937e-10
0.034, -9.997e-10
0.033, -1.006e-9
0.032, -1.012e-9
0.031, -1.018e-9
0.030, -1.024e-9
0.029, -1.030e-9
0.028, -1.036e-9
0.027, -1.041e-9
0.026, -1.049e-9
0.025, -1.054e-9
0.024, -1.061e-9
0.023, -1.067e-9
0.022, -1.073e-9
0.021, -1.080e-9
0.020, -1.087e-9
0.019, -1.093e-9
0.018, -1.100e-9
0.017, -1.106e-9
0.016, -1.112e-9
0.015, -1.118e-9
0.014, -1.124e-9
0.013, -1.131e-9
0.012, -1.137e-9
0.011, -1.143e-9
0.010, -1.149e-9
0.009, -1.156e-9
0.008, -1.163e-9
0.007, -1.169e-9
0.006, -1.176e-9
0.005, -1.182e-9
0.004, -1.189e-9
0.003, -1.196e-9
0.002, -1.202e-9
0.001, -1.209e-9
-0.000, -1.210e-9
-0.001, -1.218e-9
-0.002, -1.227e-9
-0.003, -1.234e-9
-0.004, -1.240e-9
-0.005, -1.247e-9
-0.006, -1.254e-9
-0.007, -1.261e-9
-0.008, -1.268e-9
-0.009, -1.274e-9
-0.010, -1.280e-9
-0.011, -1.287e-9
-0.012, -1.295e-9
-0.013, -1.300e-9
-0.014, -1.308e-9
-0.015, -1.316e-9
-0.016, -1.323e-9
-0.017, -1.331e-9
-0.018, -1.338e-9
-0.019, -1.345e-9
-0.020, -1.351e-9
-0.021, -1.358e-9
-0.022, -1.366e-9
-0.023, -1.373e-9
-0.024, -1.382e-9
-0.025, -1.388e-9
-0.026, -1.395e-9
-0.027, -1.401e-9
-0.028, -1.409e-9
-0.029, -1.415e-9
-0.030, -1.424e-9
-0.031, -1.432e-9
-0.032, -1.440e-9
-0.033, -1.448e-9
-0.034, -1.454e-9
-0.035, -1.462e-9
-0.036, -1.472e-9
-0.037, -1.483e-9
-0.038, -1.495e-9
-0.039, -1.503e-9
-0.040, -1.510e-9
-0.041, -1.518e-9
-0.042, -1.523e-9
-0.043, -1.533e-9
-0.044, -1.538e-9
-0.045, -1.539e-9
-0.046, -1.545e-9
-0.047, -1.552e-9
-0.048, -1.554e-9
-0.049, -1.555e-9
-0.050, -1.557e-9
-0.051, -1.560e-9
-0.052, -1.564e-9
-0.053, -1.571e-9
-0.054, -1.582e-9
-0.055, -1.587e-9
-0.056, -1.594e-9
-0.057, -1.601e-9
-0.058, -1.608e-9
-0.059, -1.620e-9
-0.060, -1.630e-9
-0.061, -1.641e-9
-0.062, -1.655e-9
-0.063, -1.657e-9
-0.064, -1.657e-9
-0.065, -1.654e-9
-0.066, -1.660e-9
-0.067, -1.669e-9
-0.068, -1.679e-9
-0.069, -1.693e-9
-0.070, -1.702e-9
-0.071, -1.699e-9
-0.072, -1.701e-9
-0.073, -1.707e-9
-0.074, -1.708e-9
-0.075, -1.714e-9
-0.076, -1.721e-9
-0.077, -1.725e-9
-0.078, -1.730e-9
-0.079, -1.737e-9
-0.080, -1.743e-9
-0.081, -1.751e-9
-0.082, -1.758e-9
-0.083, -1.765e-9
-0.084, -1.771e-9
-0.085, -1.778e-9
-0.086, -1.784e-9
-0.087, -1.790e-9
-0.088, -1.796e-9
-0.089, -1.806e-9
-0.090, -1.810e-9
-0.091, -1.815e-9
-0.092, -1.822e-9
-0.093, -1.827e-9
-0.094, -1.834e-9
-0.095, -1.841e-9
-0.096, -1.848e-9
-0.097, -1.853e-9
-0.098, -1.858e-9
-0.099, -1.864e-9
-0.100, -1.870e-9
-0.101, -1.876e-9
-0.102, -1.885e-9
-0.103, -1.893e-9
-0.104, -1.898e-9
-0.105, -1.904e-9
-0.106, -1.908e-9
-0.107, -1.916e-9
-0.108, -1.923e-9
-0.109, -1.929e-9
-0.110, -1.935e-9
-0.111, -1.940e-9
-0.112, -1.946e-9
-0.113, -1.954e-9
-0.114, -1.965e-9
-0.115, -1.974e-9
-0.116, -1.973e-9
-0.117, -1.977e-9
-0.118, -1.984e-9
-0.119, -1.988e-9
-0.120, -1.994e-9
-0.121, -2.001e-9
-0.122, -2.007e-9
-0.123, -2.019e-9
-0.124, -2.044e-9
-0.125, -2.029e-9
-0.126, -2.031e-9
-0.127, -2.035e-9
-0.128, -2.041e-9
-0.129, -2.047e-9
-0.130, -2.054e-9
-0.131, -2.058e-9
-0.132, -2.064e-9
-0.133, -2.070e-9
-0.134, -2.077e-9
-0.135, -2.082e-9
-0.136, -2.088e-9
-0.137, -2.094e-9
-0.138, -2.100e-9
-0.139, -2.107e-9
-0.140, -2.113e-9
-0.141, -2.118e-9
-0.142, -2.124e-9
-0.143, -2.130e-9
-0.144, -2.135e-9
-0.145, -2.142e-9
-0.146, -2.147e-9
-0.147, -2.153e-9
-0.148, -2.159e-9
-0.149, -2.164e-9
-0.150, -2.168e-9
-0.151, -2.174e-9
-0.152, -2.179e-9
-0.153, -2.186e-9
-0.154, -2.190e-9
-0.155, -2.196e-9
-0.156, -2.202e-9
-0.157, -2.208e-9
-0.158, -2.214e-9
-0.159, -2.219e-9
-0.160, -2.226e-9
-0.161, -2.231e-9
-0.162, -2.236e-9
-0.163, -2.243e-9
-0.164, -2.247e-9
-0.165, -2.253e-9
-0.166, -2.259e-9
-0.167, -2.264e-9
-0.168, -2.270e-9
-0.169, -2.275e-9
-0.170, -2.280e-9
-0.171, -2.286e-9
-0.172, -2.291e-9
-0.173, -2.297e-9
-0.174, -2.303e-9
-0.175, -2.308e-9
-0.176, -2.314e-9
-0.177, -2.319e-9
-0.178, -2.325e-9
-0.179, -2.331e-9
-0.180, -2.337e-9
-0.181, -2.343e-9
-0.182, -2.348e-9
-0.183, -2.352e-9
-0.184, -2.358e-9
-0.185, -2.364e-9
-0.186, -2.368e-9
-0.187, -2.373e-9
-0.188, -2.379e-9
-0.189, -2.384e-9
-0.190, -2.389e-9
-0.191, -2.396e-9
-0.192, -2.400e-9
-0.193, -2.405e-9
-0.194, -2.410e-9
-0.195, -2.416e-9
-0.196, -2.422e-9
-0.197, -2.428e-9
-0.198, -2.433e-9
-0.199, -2.439e-9
-0.200, -2.444e-9
-0.201, -2.451e-9
-0.202, -2.456e-9
-0.203, -2.460e-9
-0.204, -2.466e-9
-0.205, -2.466e-9
-0.206, -2.472e-9
-0.207, -2.479e-9
-0.208, -2.484e-9
-0.209, -2.491e-9
-0.210, -2.496e-9
-0.211, -2.502e-9
-0.212, -2.507e-9
-0.213, -2.512e-9
-0.214, -2.517e-9
-0.215, -2.522e-9
-0.216, -2.528e-9
-0.217, -2.534e-9
-0.218, -2.538e-9
-0.219, -2.544e-9
-0.220, -2.549e-9
-0.221, -2.555e-9
-0.222, -2.559e-9
-0.223, -2.565e-9
-0.224, -2.570e-9
-0.225, -2.577e-9
-0.226, -2.580e-9
-0.227, -2.586e-9
-0.228, -2.592e-9
-0.229, -2.597e-9
-0.230, -2.602e-9
-0.231, -2.607e-9
-0.232, -2.613e-9
-0.233, -2.618e-9
-0.234, -2.622e-9
-0.235, -2.629e-9
-0.236, -2.633e-9
-0.237, -2.639e-9
-0.238, -2.644e-9
-0.239, -2.649e-9
-0.240, -2.653e-9
-0.241, -2.658e-9
-0.242, -2.663e-9
-0.243, -2.668e-9
-0.244, -2.673e-9
-0.245, -2.677e-9
-0.246, -2.683e-9
-0.247, -2.688e-9
-0.248, -2.693e-9
-0.249, -2.698e-9
-0.250, -2.704e-9
-0.251, -2.711e-9
-0.252, -2.715e-9
-0.253, -2.719e-9
-0.254, -2.726e-9
-0.255, -2.732e-9
-0.256, -2.736e-9
-0.257, -2.742e-9
-0.258, -2.747e-9
-0.259, -2.752e-9
-0.260, -2.756e-9
-0.261, -2.760e-9
-0.262, -2.766e-9
-0.263, -2.770e-9
-0.264, -2.774e-9
-0.265, -2.780e-9
-0.266, -2.783e-9
-0.267, -2.790e-9
-0.268, -2.795e-9
-0.269, -2.799e-9
-0.270, -2.805e-9
-0.271, -2.811e-9
-0.272, -2.816e-9
-0.273, -2.821e-9
-0.274, -2.826e-9
-0.275, -2.831e-9
-0.276, -2.837e-9
-0.277, -2.842e-9
-0.278, -2.847e-9
-0.279, -2.852e-9
-0.280, -2.857e-9
-0.281, -2.863e-9
-0.282, -2.868e-9
-0.283, -2.874e-9
-0.284, -2.879e-9
-0.285, -2.883e-9
-0.286, -2.888e-9
-0.287, -2.895e-9
-0.288, -2.899e-9
-0.289, -2.904e-9
-0.290, -2.909e-9
-0.291, -2.915e-9
-0.292, -2.921e-9
-0.293, -2.925e-9
-0.294, -2.930e-9
-0.295, -2.934e-9
-0.296, -2.940e-9
-0.297, -2.945e-9
-0.298, -2.950e-9
-0.299, -2.955e-9
-0.300, -2.959e-9
-0.301, -2.965e-9
-0.302, -2.970e-9
-0.303, -2.974e-9
-0.304, -2.978e-9
-0.305, -2.984e-9
-0.306, -2.989e-9
-0.307, -2.998e-9
-0.308, -3.004e-9
-0.309, -3.008e-9
-0.310, -3.012e-9
-0.311, -3.016e-9
-0.312, -3.022e-9
-0.313, -3.028e-9
-0.314, -3.033e-9
-0.315, -3.038e-9
-0.316, -3.042e-9
-0.317, -3.048e-9
-0.318, -3.052e-9
-0.319, -3.057e-9
-0.320, -3.062e-9
-0.321, -3.068e-9
-0.322, -3.073e-9
-0.323, -3.078e-9
-0.324, -3.083e-9
-0.325, -3.088e-9
-0.326, -3.093e-9
-0.327, -3.097e-9
-0.328, -3.102e-9
-0.329, -3.109e-9
-0.330, -3.115e-9
-0.331, -3.121e-9
-0.332, -3.126e-9
-0.333, -3.129e-9
-0.334, -3.135e-9
-0.335, -3.140e-9
-0.336, -3.145e-9
-0.337, -3.151e-9
-0.338, -3.155e-9
-0.339, -3.161e-9
-0.340, -3.167e-9
-0.341, -3.172e-9
-0.342, -3.176e-9
-0.343, -3.181e-9
-0.344, -3.188e-9
-0.345, -3.193e-9
-0.346, -3.198e-9
-0.347, -3.202e-9
-0.348, -3.207e-9
-0.349, -3.213e-9
-0.350, -3.219e-9
-0.351, -3.224e-9
-0.352, -3.229e-9
-0.353, -3.235e-9
-0.354, -3.240e-9
-0.355, -3.246e-9
-0.356, -3.250e-9
-0.357, -3.254e-9
-0.358, -3.261e-9
-0.359, -3.265e-9
-0.360, -3.270e-9
-0.361, -3.276e-9
-0.362, -3.281e-9
-0.363, -3.287e-9
-0.364, -3.293e-9
-0.365, -3.298e-9
-0.366, -3.302e-9
-0.367, -3.308e-9
-0.368, -3.314e-9
-0.369, -3.319e-9
-0.370, -3.323e-9
-0.371, -3.329e-9
-0.372, -3.335e-9
-0.373, -3.339e-9
-0.374, -3.345e-9
-0.375, -3.349e-9
-0.376, -3.356e-9
-0.377, -3.362e-9
-0.378, -3.366e-9
-0.379, -3.372e-9
-0.380, -3.378e-9
-0.381, -3.383e-9
-0.382, -3.388e-9
-0.383, -3.393e-9
-0.384, -3.398e-9
-0.385, -3.404e-9
-0.386, -3.410e-9
-0.387, -3.414e-9
-0.388, -3.419e-9
-0.389, -3.426e-9
-0.390, -3.432e-9
-0.391, -3.436e-9
-0.392, -3.442e-9
-0.393, -3.448e-9
-0.394, -3.453e-9
-0.395, -3.459e-9
-0.396, -3.463e-9
-0.397, -3.469e-9
-0.398, -3.475e-9
-0.399, -3.481e-9
-0.400, -3.486e-9
-0.401, -3.493e-9
-0.402, -3.498e-9
-0.403, -3.504e-9
-0.404, -3.508e-9
-0.405, -3.512e-9
-0.406, -3.517e-9
-0.407, -3.522e-9
-0.408, -3.529e-9
-0.409, -3.536e-9
-0.410, -3.542e-9
-0.411, -3.548e-9
-0.412, -3.555e-9
-0.413, -3.560e-9
-0.414, -3.565e-9
-0.415, -3.570e-9
-0.416, -3.575e-9
-0.417, -3.582e-9
-0.418, -3.586e-9
-0.419, -3.592e-9
-0.420, -3.598e-9
-0.421, -3.603e-9
-0.422, -3.610e-9
-0.423, -3.615e-9
-0.424, -3.623e-9
-0.425, -3.629e-9
-0.426, -3.634e-9
-0.427, -3.640e-9
-0.428, -3.646e-9
-0.429, -3.652e-9
-0.430, -3.658e-9
-0.431, -3.663e-9
-0.432, -3.668e-9
-0.433, -3.674e-9
-0.434, -3.679e-9
-0.435, -3.686e-9
-0.436, -3.693e-9
-0.437, -3.698e-9
-0.438, -3.703e-9
-0.439, -3.709e-9
-0.440, -3.715e-9
-0.441, -3.722e-9
-0.442, -3.727e-9
-0.443, -3.733e-9
-0.444, -3.739e-9
-0.445, -3.744e-9
-0.446, -3.750e-9
-0.447, -3.757e-9
-0.448, -3.762e-9
-0.449, -3.768e-9
-0.450, -3.775e-9
-0.451, -3.781e-9
-0.452, -3.788e-9
-0.453, -3.794e-9
-0.454, -3.802e-9
-0.455, -3.809e-9
-0.456, -3.814e-9
-0.457, -3.819e-9
-0.458, -3.825e-9
-0.459, -3.830e-9
-0.460, -3.837e-9
-0.461, -3.841e-9
-0.462, -3.849e-9
-0.463, -3.857e-9
-0.464, -3.863e-9
-0.465, -3.868e-9
-0.466, -3.875e-9
-0.467, -3.882e-9
-0.468, -3.889e-9
-0.469, -3.896e-9
-0.470, -3.901e-9
-0.471, -3.906e-9
-0.472, -3.913e-9
-0.473, -3.919e-9
-0.474, -3.925e-9
-0.475, -3.932e-9
-0.476, -3.939e-9
-0.477, -3.946e-9
-0.478, -3.953e-9
-0.479, -3.959e-9
-0.480, -3.966e-9
-0.481, -3.973e-9
-0.482, -3.977e-9
-0.483, -3.983e-9
-0.484, -3.990e-9
-0.485, -3.997e-9
-0.486, -4.004e-9
-0.487, -4.009e-9
-0.488, -4.015e-9
-0.489, -4.023e-9
-0.490, -4.031e-9
-0.491, -4.037e-9
-0.492, -4.043e-9
-0.493, -4.050e-9
-0.494, -4.055e-9
-0.495, -4.061e-9
-0.496, -4.068e-9
-0.497, -4.075e-9
-0.498, -4.082e-9
-0.499, -4.089e-9
