Mar. 7, 2025   14:37:04
Cyclic Voltammetry
File: cv surface incubated 4.bin
Data Source:  Experiment
Instrument Model:  CHI920C
Ref. Electrode: 
Header: 
Note: 

Init E (V) = -0.5
High E (V) = 0.5
Low E (V) = -0.5
Init P/N = P
Scan Rate (V/s) = 0.05
Segment = 2
Sample Interval (V) = 0.001
Quiet Time (sec) = 10
Sensitivity (A/V) = 1e-8

Results:

Channel 1:
Segment 1:

Segment 2:

Potential/V, Current/A

-0.500, -1.912e-9
-0.499, -1.822e-9
-0.498, -1.769e-9
-0.497, -1.738e-9
-0.496, -1.712e-9
-0.495, -1.689e-9
-0.494, -1.668e-9
-0.493, -1.647e-9
-0.492, -1.629e-9
-0.491, -1.611e-9
-0.490, -1.593e-9
-0.489, -1.577e-9
-0.488, -1.561e-9
-0.487, -1.547e-9
-0.486, -1.532e-9
-0.485, -1.515e-9
-0.484, -1.501e-9
-0.483, -1.487e-9
-0.482, -1.474e-9
-0.481, -1.459e-9
-0.480, -1.445e-9
-0.479, -1.432e-9
-0.478, -1.418e-9
-0.477, -1.406e-9
-0.476, -1.394e-9
-0.475, -1.381e-9
-0.474, -1.368e-9
-0.473, -1.356e-9
-0.472, -1.344e-9
-0.471, -1.331e-9
-0.470, -1.321e-9
-0.469, -1.308e-9
-0.468, -1.297e-9
-0.467, -1.285e-9
-0.466, -1.273e-9
-0.465, -1.262e-9
-0.464, -1.251e-9
-0.463, -1.239e-9
-0.462, -1.228e-9
-0.461, -1.218e-9
-0.460, -1.207e-9
-0.459, -1.196e-9
-0.458, -1.184e-9
-0.457, -1.175e-9
-0.456, -1.164e-9
-0.455, -1.153e-9
-0.454, -1.143e-9
-0.453, -1.132e-9
-0.452, -1.122e-9
-0.451, -1.113e-9
-0.450, -1.102e-9
-0.449, -1.093e-9
-0.448, -1.083e-9
-0.447, -1.073e-9
-0.446, -1.063e-9
-0.445, -1.052e-9
-0.444, -1.042e-9
-0.443, -1.033e-9
-0.442, -1.023e-9
-0.441, -1.013e-9
-0.440, -1.004e-9
-0.439, -9.951e-10
-0.438, -9.854e-10
-0.437, -9.750e-10
-0.436, -9.665e-10
-0.435, -9.561e-10
-0.434, -9.469e-10
-0.433, -9.375e-10
-0.432, -9.285e-10
-0.431, -9.200e-10
-0.430, -9.104e-10
-0.429, -9.008e-10
-0.428, -8.920e-10
-0.427, -8.825e-10
-0.426, -8.733e-10
-0.425, -8.653e-10
-0.424, -8.556e-10
-0.423, -8.471e-10
-0.422, -8.387e-10
-0.421, -8.296e-10
-0.420, -8.214e-10
-0.419, -8.127e-10
-0.418, -8.031e-10
-0.417, -7.944e-10
-0.416, -7.852e-10
-0.415, -7.766e-10
-0.414, -7.685e-10
-0.413, -7.601e-10
-0.412, -7.508e-10
-0.411, -7.432e-10
-0.410, -7.346e-10
-0.409, -7.259e-10
-0.408, -7.177e-10
-0.407, -7.086e-10
-0.406, -7.015e-10
-0.405, -6.930e-10
-0.404, -6.840e-10
-0.403, -6.757e-10
-0.402, -6.669e-10
-0.401, -6.590e-10
-0.400, -6.520e-10
-0.399, -6.437e-10
-0.398, -6.344e-10
-0.397, -6.256e-10
-0.396, -6.192e-10
-0.395, -6.110e-10
-0.394, -6.033e-10
-0.393, -5.956e-10
-0.392, -5.867e-10
-0.391, -5.786e-10
-0.390, -5.707e-10
-0.389, -5.630e-10
-0.388, -5.554e-10
-0.387, -5.466e-10
-0.386, -5.391e-10
-0.385, -5.313e-10
-0.384, -5.235e-10
-0.383, -5.164e-10
-0.382, -5.088e-10
-0.381, -5.013e-10
-0.380, -4.927e-10
-0.379, -4.840e-10
-0.378, -4.770e-10
-0.377, -4.706e-10
-0.376, -4.624e-10
-0.375, -4.548e-10
-0.374, -4.476e-10
-0.373, -4.395e-10
-0.372, -4.316e-10
-0.371, -4.263e-10
-0.370, -4.177e-10
-0.369, -4.090e-10
-0.368, -4.030e-10
-0.367, -3.950e-10
-0.366, -3.876e-10
-0.365, -3.803e-10
-0.364, -3.724e-10
-0.363, -3.656e-10
-0.362, -3.582e-10
-0.361, -3.516e-10
-0.360, -3.433e-10
-0.359, -3.363e-10
-0.358, -3.311e-10
-0.357, -3.227e-10
-0.356, -3.155e-10
-0.355, -3.086e-10
-0.354, -3.013e-10
-0.353, -2.938e-10
-0.352, -2.869e-10
-0.351, -2.790e-10
-0.350, -2.725e-10
-0.349, -2.663e-10
-0.348, -2.596e-10
-0.347, -2.512e-10
-0.346, -2.457e-10
-0.345, -2.395e-10
-0.344, -2.318e-10
-0.343, -2.236e-10
-0.342, -2.181e-10
-0.341, -2.120e-10
-0.340, -2.037e-10
-0.339, -1.968e-10
-0.338, -1.905e-10
-0.337, -1.840e-10
-0.336, -1.769e-10
-0.335, -1.696e-10
-0.334, -1.637e-10
-0.333, -1.565e-10
-0.332, -1.500e-10
-0.331, -1.435e-10
-0.330, -1.361e-10
-0.329, -1.302e-10
-0.328, -1.234e-10
-0.327, -1.165e-10
-0.326, -1.099e-10
-0.325, -1.037e-10
-0.324, -9.695e-11
-0.323, -9.112e-11
-0.322, -8.442e-11
-0.321, -7.732e-11
-0.320, -7.199e-11
-0.319, -6.529e-11
-0.318, -5.954e-11
-0.317, -5.220e-11
-0.316, -4.603e-11
-0.315, -3.959e-11
-0.314, -3.255e-11
-0.313, -2.594e-11
-0.312, -1.974e-11
-0.311, -1.427e-11
-0.310, -8.185e-12
-0.309, -1.585e-12
-0.308, 5.014e-12
-0.307, 1.615e-11
-0.306, 2.087e-11
-0.305, 2.524e-11
-0.304, 3.120e-11
-0.303, 3.699e-11
-0.302, 4.332e-11
-0.301, 5.026e-11
-0.300, 5.597e-11
-0.299, 6.112e-11
-0.298, 6.741e-11
-0.297, 7.335e-11
-0.296, 7.998e-11
-0.295, 8.554e-11
-0.294, 9.109e-11
-0.293, 9.786e-11
-0.292, 1.040e-10
-0.291, 1.094e-10
-0.290, 1.164e-10
-0.289, 1.218e-10
-0.288, 1.284e-10
-0.287, 1.345e-10
-0.286, 1.398e-10
-0.285, 1.453e-10
-0.284, 1.505e-10
-0.283, 1.571e-10
-0.282, 1.629e-10
-0.281, 1.679e-10
-0.280, 1.743e-10
-0.279, 1.806e-10
-0.278, 1.866e-10
-0.277, 1.923e-10
-0.276, 1.981e-10
-0.275, 2.035e-10
-0.274, 2.099e-10
-0.273, 2.152e-10
-0.272, 2.211e-10
-0.271, 2.260e-10
-0.270, 2.322e-10
-0.269, 2.396e-10
-0.268, 2.436e-10
-0.267, 2.492e-10
-0.266, 2.551e-10
-0.265, 2.602e-10
-0.264, 2.677e-10
-0.263, 2.718e-10
-0.262, 2.778e-10
-0.261, 2.832e-10
-0.260, 2.890e-10
-0.259, 2.938e-10
-0.258, 2.999e-10
-0.257, 3.057e-10
-0.256, 3.109e-10
-0.255, 3.163e-10
-0.254, 3.219e-10
-0.253, 3.272e-10
-0.252, 3.329e-10
-0.251, 3.383e-10
-0.250, 3.445e-10
-0.249, 3.499e-10
-0.248, 3.546e-10
-0.247, 3.601e-10
-0.246, 3.649e-10
-0.245, 3.712e-10
-0.244, 3.768e-10
-0.243, 3.813e-10
-0.242, 3.877e-10
-0.241, 3.926e-10
-0.240, 3.983e-10
-0.239, 4.035e-10
-0.238, 4.082e-10
-0.237, 4.147e-10
-0.236, 4.197e-10
-0.235, 4.251e-10
-0.234, 4.303e-10
-0.233, 4.354e-10
-0.232, 4.419e-10
-0.231, 4.463e-10
-0.230, 4.501e-10
-0.229, 4.558e-10
-0.228, 4.617e-10
-0.227, 4.670e-10
-0.226, 4.714e-10
-0.225, 4.774e-10
-0.224, 4.829e-10
-0.223, 4.881e-10
-0.222, 4.931e-10
-0.221, 4.979e-10
-0.220, 5.031e-10
-0.219, 5.090e-10
-0.218, 5.154e-10
-0.217, 5.181e-10
-0.216, 5.237e-10
-0.215, 5.290e-10
-0.214, 5.338e-10
-0.213, 5.395e-10
-0.212, 5.441e-10
-0.211, 5.489e-10
-0.210, 5.553e-10
-0.209, 5.596e-10
-0.208, 5.647e-10
-0.207, 5.705e-10
-0.206, 5.751e-10
-0.205, 5.781e-10
-0.204, 5.826e-10
-0.203, 5.888e-10
-0.202, 5.943e-10
-0.201, 5.986e-10
-0.200, 6.047e-10
-0.199, 6.094e-10
-0.198, 6.139e-10
-0.197, 6.194e-10
-0.196, 6.258e-10
-0.195, 6.297e-10
-0.194, 6.346e-10
-0.193, 6.395e-10
-0.192, 6.441e-10
-0.191, 6.490e-10
-0.190, 6.534e-10
-0.189, 6.587e-10
-0.188, 6.634e-10
-0.187, 6.684e-10
-0.186, 6.734e-10
-0.185, 6.778e-10
-0.184, 6.835e-10
-0.183, 6.895e-10
-0.182, 6.930e-10
-0.181, 6.987e-10
-0.180, 7.046e-10
-0.179, 7.083e-10
-0.178, 7.140e-10
-0.177, 7.186e-10
-0.176, 7.223e-10
-0.175, 7.271e-10
-0.174, 7.324e-10
-0.173, 7.367e-10
-0.172, 7.417e-10
-0.171, 7.465e-10
-0.170, 7.525e-10
-0.169, 7.560e-10
-0.168, 7.606e-10
-0.167, 7.665e-10
-0.166, 7.700e-10
-0.165, 7.761e-10
-0.164, 7.808e-10
-0.163, 7.845e-10
-0.162, 7.910e-10
-0.161, 7.961e-10
-0.160, 8.003e-10
-0.159, 8.060e-10
-0.158, 8.096e-10
-0.157, 8.145e-10
-0.156, 8.186e-10
-0.155, 8.229e-10
-0.154, 8.278e-10
-0.153, 8.330e-10
-0.152, 8.380e-10
-0.151, 8.422e-10
-0.150, 8.464e-10
-0.149, 8.521e-10
-0.148, 8.573e-10
-0.147, 8.610e-10
-0.146, 8.667e-10
-0.145, 8.709e-10
-0.144, 8.757e-10
-0.143, 8.803e-10
-0.142, 8.850e-10
-0.141, 8.895e-10
-0.140, 8.942e-10
-0.139, 8.993e-10
-0.138, 9.034e-10
-0.137, 9.075e-10
-0.136, 9.125e-10
-0.135, 9.181e-10
-0.134, 9.223e-10
-0.133, 9.265e-10
-0.132, 9.320e-10
-0.131, 9.370e-10
-0.130, 9.420e-10
-0.129, 9.460e-10
-0.128, 9.502e-10
-0.127, 9.559e-10
-0.126, 9.606e-10
-0.125, 9.662e-10
-0.124, 9.705e-10
-0.123, 9.752e-10
-0.122, 9.811e-10
-0.121, 9.843e-10
-0.120, 9.889e-10
-0.119, 9.937e-10
-0.118, 9.976e-10
-0.117, 1.003e-9
-0.116, 1.007e-9
-0.115, 1.011e-9
-0.114, 1.017e-9
-0.113, 1.022e-9
-0.112, 1.025e-9
-0.111, 1.030e-9
-0.110, 1.035e-9
-0.109, 1.041e-9
-0.108, 1.045e-9
-0.107, 1.050e-9
-0.106, 1.055e-9
-0.105, 1.060e-9
-0.104, 1.065e-9
-0.103, 1.069e-9
-0.102, 1.078e-9
-0.101, 1.081e-9
-0.100, 1.084e-9
-0.099, 1.090e-9
-0.098, 1.093e-9
-0.097, 1.098e-9
-0.096, 1.104e-9
-0.095, 1.109e-9
-0.094, 1.113e-9
-0.093, 1.117e-9
-0.092, 1.122e-9
-0.091, 1.128e-9
-0.090, 1.132e-9
-0.089, 1.136e-9
-0.088, 1.142e-9
-0.087, 1.146e-9
-0.086, 1.151e-9
-0.085, 1.156e-9
-0.084, 1.161e-9
-0.083, 1.165e-9
-0.082, 1.169e-9
-0.081, 1.172e-9
-0.080, 1.177e-9
-0.079, 1.182e-9
-0.078, 1.185e-9
-0.077, 1.189e-9
-0.076, 1.193e-9
-0.075, 1.196e-9
-0.074, 1.200e-9
-0.073, 1.205e-9
-0.072, 1.210e-9
-0.071, 1.215e-9
-0.070, 1.220e-9
-0.069, 1.225e-9
-0.068, 1.229e-9
-0.067, 1.232e-9
-0.066, 1.236e-9
-0.065, 1.242e-9
-0.064, 1.245e-9
-0.063, 1.249e-9
-0.062, 1.253e-9
-0.061, 1.258e-9
-0.060, 1.262e-9
-0.059, 1.267e-9
-0.058, 1.273e-9
-0.057, 1.279e-9
-0.056, 1.284e-9
-0.055, 1.288e-9
-0.054, 1.292e-9
-0.053, 1.297e-9
-0.052, 1.302e-9
-0.051, 1.307e-9
-0.050, 1.313e-9
-0.049, 1.317e-9
-0.048, 1.321e-9
-0.047, 1.326e-9
-0.046, 1.331e-9
-0.045, 1.336e-9
-0.044, 1.341e-9
-0.043, 1.346e-9
-0.042, 1.350e-9
-0.041, 1.355e-9
-0.040, 1.361e-9
-0.039, 1.365e-9
-0.038, 1.370e-9
-0.037, 1.374e-9
-0.036, 1.378e-9
-0.035, 1.383e-9
-0.034, 1.388e-9
-0.033, 1.392e-9
-0.032, 1.398e-9
-0.031, 1.404e-9
-0.030, 1.409e-9
-0.029, 1.415e-9
-0.028, 1.422e-9
-0.027, 1.429e-9
-0.026, 1.434e-9
-0.025, 1.438e-9
-0.024, 1.443e-9
-0.023, 1.447e-9
-0.022, 1.452e-9
-0.021, 1.457e-9
-0.020, 1.461e-9
-0.019, 1.466e-9
-0.018, 1.472e-9
-0.017, 1.478e-9
-0.016, 1.481e-9
-0.015, 1.486e-9
-0.014, 1.488e-9
-0.013, 1.492e-9
-0.012, 1.496e-9
-0.011, 1.500e-9
-0.010, 1.506e-9
-0.009, 1.509e-9
-0.008, 1.512e-9
-0.007, 1.516e-9
-0.006, 1.521e-9
-0.005, 1.526e-9
-0.004, 1.532e-9
-0.003, 1.537e-9
-0.002, 1.545e-9
-0.001, 1.551e-9
0.000, 1.551e-9
0.001, 1.554e-9
0.002, 1.560e-9
0.003, 1.564e-9
0.004, 1.568e-9
0.005, 1.571e-9
0.006, 1.574e-9
0.007, 1.578e-9
0.008, 1.584e-9
0.009, 1.589e-9
0.010, 1.592e-9
0.011, 1.596e-9
0.012, 1.602e-9
0.013, 1.608e-9
0.014, 1.616e-9
0.015, 1.621e-9
0.016, 1.626e-9
0.017, 1.631e-9
0.018, 1.636e-9
0.019, 1.643e-9
0.020, 1.649e-9
0.021, 1.655e-9
0.022, 1.661e-9
0.023, 1.664e-9
0.024, 1.671e-9
0.025, 1.676e-9
0.026, 1.680e-9
0.027, 1.685e-9
0.028, 1.689e-9
0.029, 1.695e-9
0.030, 1.701e-9
0.031, 1.706e-9
0.032, 1.712e-9
0.033, 1.717e-9
0.034, 1.721e-9
0.035, 1.725e-9
0.036, 1.730e-9
0.037, 1.733e-9
0.038, 1.739e-9
0.039, 1.743e-9
0.040, 1.747e-9
0.041, 1.753e-9
0.042, 1.757e-9
0.043, 1.764e-9
0.044, 1.772e-9
0.045, 1.776e-9
0.046, 1.782e-9
0.047, 1.787e-9
0.048, 1.791e-9
0.049, 1.795e-9
0.050, 1.801e-9
0.051, 1.807e-9
0.052, 1.812e-9
0.053, 1.818e-9
0.054, 1.822e-9
0.055, 1.827e-9
0.056, 1.833e-9
0.057, 1.839e-9
0.058, 1.845e-9
0.059, 1.851e-9
0.060, 1.857e-9
0.061, 1.862e-9
0.062, 1.865e-9
0.063, 1.869e-9
0.064, 1.874e-9
0.065, 1.878e-9
0.066, 1.885e-9
0.067, 1.891e-9
0.068, 1.897e-9
0.069, 1.902e-9
0.070, 1.908e-9
0.071, 1.913e-9
0.072, 1.919e-9
0.073, 1.924e-9
0.074, 1.929e-9
0.075, 1.935e-9
0.076, 1.940e-9
0.077, 1.946e-9
0.078, 1.952e-9
0.079, 1.957e-9
0.080, 1.962e-9
0.081, 1.968e-9
0.082, 1.974e-9
0.083, 1.981e-9
0.084, 1.987e-9
0.085, 1.993e-9
0.086, 1.999e-9
0.087, 2.005e-9
0.088, 2.010e-9
0.089, 2.015e-9
0.090, 2.019e-9
0.091, 2.025e-9
0.092, 2.031e-9
0.093, 2.036e-9
0.094, 2.042e-9
0.095, 2.049e-9
0.096, 2.056e-9
0.097, 2.064e-9
0.098, 2.071e-9
0.099, 2.078e-9
0.100, 2.087e-9
0.101, 2.095e-9
0.102, 2.103e-9
0.103, 2.113e-9
0.104, 2.117e-9
0.105, 2.124e-9
0.106, 2.128e-9
0.107, 2.133e-9
0.108, 2.139e-9
0.109, 2.145e-9
0.110, 2.147e-9
0.111, 2.151e-9
0.112, 2.156e-9
0.113, 2.161e-9
0.114, 2.165e-9
0.115, 2.171e-9
0.116, 2.175e-9
0.117, 2.178e-9
0.118, 2.183e-9
0.119, 2.188e-9
0.120, 2.194e-9
0.121, 2.201e-9
0.122, 2.208e-9
0.123, 2.215e-9
0.124, 2.221e-9
0.125, 2.226e-9
0.126, 2.234e-9
0.127, 2.240e-9
0.128, 2.245e-9
0.129, 2.253e-9
0.130, 2.260e-9
0.131, 2.267e-9
0.132, 2.273e-9
0.133, 2.279e-9
0.134, 2.287e-9
0.135, 2.294e-9
0.136, 2.301e-9
0.137, 2.307e-9
0.138, 2.313e-9
0.139, 2.321e-9
0.140, 2.328e-9
0.141, 2.333e-9
0.142, 2.342e-9
0.143, 2.349e-9
0.144, 2.355e-9
0.145, 2.363e-9
0.146, 2.369e-9
0.147, 2.376e-9
0.148, 2.384e-9
0.149, 2.392e-9
0.150, 2.399e-9
0.151, 2.405e-9
0.152, 2.413e-9
0.153, 2.421e-9
0.154, 2.427e-9
0.155, 2.434e-9
0.156, 2.442e-9
0.157, 2.449e-9
0.158, 2.457e-9
0.159, 2.463e-9
0.160, 2.471e-9
0.161, 2.479e-9
0.162, 2.486e-9
0.163, 2.493e-9
0.164, 2.501e-9
0.165, 2.507e-9
0.166, 2.516e-9
0.167, 2.523e-9
0.168, 2.530e-9
0.169, 2.538e-9
0.170, 2.545e-9
0.171, 2.554e-9
0.172, 2.560e-9
0.173, 2.567e-9
0.174, 2.575e-9
0.175, 2.582e-9
0.176, 2.589e-9
0.177, 2.598e-9
0.178, 2.606e-9
0.179, 2.614e-9
0.180, 2.620e-9
0.181, 2.628e-9
0.182, 2.637e-9
0.183, 2.645e-9
0.184, 2.654e-9
0.185, 2.660e-9
0.186, 2.669e-9
0.187, 2.677e-9
0.188, 2.685e-9
0.189, 2.692e-9
0.190, 2.701e-9
0.191, 2.708e-9
0.192, 2.715e-9
0.193, 2.723e-9
0.194, 2.730e-9
0.195, 2.738e-9
0.196, 2.746e-9
0.197, 2.752e-9
0.198, 2.760e-9
0.199, 2.767e-9
0.200, 2.772e-9
0.201, 2.777e-9
0.202, 2.783e-9
0.203, 2.790e-9
0.204, 2.797e-9
0.205, 2.800e-9
0.206, 2.808e-9
0.207, 2.818e-9
0.208, 2.825e-9
0.209, 2.832e-9
0.210, 2.838e-9
0.211, 2.847e-9
0.212, 2.854e-9
0.213, 2.861e-9
0.214, 2.868e-9
0.215, 2.874e-9
0.216, 2.881e-9
0.217, 2.889e-9
0.218, 2.895e-9
0.219, 2.901e-9
0.220, 2.909e-9
0.221, 2.915e-9
0.222, 2.921e-9
0.223, 2.929e-9
0.224, 2.938e-9
0.225, 2.945e-9
0.226, 2.952e-9
0.227, 2.958e-9
0.228, 2.964e-9
0.229, 2.971e-9
0.230, 2.979e-9
0.231, 2.983e-9
0.232, 2.989e-9
0.233, 2.995e-9
0.234, 3.000e-9
0.235, 3.006e-9
0.236, 3.012e-9
0.237, 3.018e-9
0.238, 3.025e-9
0.239, 3.033e-9
0.240, 3.039e-9
0.241, 3.046e-9
0.242, 3.056e-9
0.243, 3.063e-9
0.244, 3.070e-9
0.245, 3.079e-9
0.246, 3.085e-9
0.247, 3.089e-9
0.248, 3.095e-9
0.249, 3.101e-9
0.250, 3.107e-9
0.251, 3.111e-9
0.252, 3.118e-9
0.253, 3.125e-9
0.254, 3.131e-9
0.255, 3.139e-9
0.256, 3.145e-9
0.257, 3.151e-9
0.258, 3.159e-9
0.259, 3.166e-9
0.260, 3.172e-9
0.261, 3.178e-9
0.262, 3.186e-9
0.263, 3.192e-9
0.264, 3.199e-9
0.265, 3.206e-9
0.266, 3.212e-9
0.267, 3.219e-9
0.268, 3.225e-9
0.269, 3.230e-9
0.270, 3.235e-9
0.271, 3.240e-9
0.272, 3.245e-9
0.273, 3.251e-9
0.274, 3.257e-9
0.275, 3.264e-9
0.276, 3.271e-9
0.277, 3.278e-9
0.278, 3.284e-9
0.279, 3.289e-9
0.280, 3.293e-9
0.281, 3.299e-9
0.282, 3.305e-9
0.283, 3.311e-9
0.284, 3.318e-9
0.285, 3.324e-9
0.286, 3.334e-9
0.287, 3.341e-9
0.288, 3.346e-9
0.289, 3.352e-9
0.290, 3.356e-9
0.291, 3.360e-9
0.292, 3.364e-9
0.293, 3.371e-9
0.294, 3.376e-9
0.295, 3.383e-9
0.296, 3.388e-9
0.297, 3.395e-9
0.298, 3.400e-9
0.299, 3.405e-9
0.300, 3.412e-9
0.301, 3.417e-9
0.302, 3.424e-9
0.303, 3.429e-9
0.304, 3.436e-9
0.305, 3.442e-9
0.306, 3.447e-9
0.307, 3.455e-9
0.308, 3.464e-9
0.309, 3.465e-9
0.310, 3.469e-9
0.311, 3.475e-9
0.312, 3.481e-9
0.313, 3.488e-9
0.314, 3.493e-9
0.315, 3.498e-9
0.316, 3.504e-9
0.317, 3.510e-9
0.318, 3.516e-9
0.319, 3.522e-9
0.320, 3.525e-9
0.321, 3.532e-9
0.322, 3.536e-9
0.323, 3.542e-9
0.324, 3.547e-9
0.325, 3.552e-9
0.326, 3.559e-9
0.327, 3.566e-9
0.328, 3.572e-9
0.329, 3.577e-9
0.330, 3.581e-9
0.331, 3.587e-9
0.332, 3.593e-9
0.333, 3.597e-9
0.334, 3.603e-9
0.335, 3.610e-9
0.336, 3.614e-9
0.337, 3.619e-9
0.338, 3.626e-9
0.339, 3.634e-9
0.340, 3.643e-9
0.341, 3.646e-9
0.342, 3.645e-9
0.343, 3.647e-9
0.344, 3.652e-9
0.345, 3.658e-9
0.346, 3.664e-9
0.347, 3.670e-9
0.348, 3.677e-9
0.349, 3.682e-9
0.350, 3.689e-9
0.351, 3.695e-9
0.352, 3.701e-9
0.353, 3.708e-9
0.354, 3.712e-9
0.355, 3.718e-9
0.356, 3.725e-9
0.357, 3.729e-9
0.358, 3.733e-9
0.359, 3.737e-9
0.360, 3.745e-9
0.361, 3.752e-9
0.362, 3.756e-9
0.363, 3.761e-9
0.364, 3.766e-9
0.365, 3.772e-9
0.366, 3.778e-9
0.367, 3.782e-9
0.368, 3.789e-9
0.369, 3.794e-9
0.370, 3.800e-9
0.371, 3.806e-9
0.372, 3.812e-9
0.373, 3.818e-9
0.374, 3.824e-9
0.375, 3.829e-9
0.376, 3.833e-9
0.377, 3.839e-9
0.378, 3.845e-9
0.379, 3.851e-9
0.380, 3.856e-9
0.381, 3.862e-9
0.382, 3.869e-9
0.383, 3.874e-9
0.384, 3.879e-9
0.385, 3.884e-9
0.386, 3.890e-9
0.387, 3.896e-9
0.388, 3.902e-9
0.389, 3.909e-9
0.390, 3.916e-9
0.391, 3.922e-9
0.392, 3.928e-9
0.393, 3.934e-9
0.394, 3.939e-9
0.395, 3.946e-9
0.396, 3.952e-9
0.397, 3.958e-9
0.398, 3.963e-9
0.399, 3.968e-9
0.400, 3.972e-9
0.401, 3.978e-9
0.402, 3.985e-9
0.403, 3.991e-9
0.404, 3.998e-9
0.405, 4.005e-9
0.406, 4.011e-9
0.407, 4.018e-9
0.408, 4.024e-9
0.409, 4.030e-9
0.410, 4.028e-9
0.411, 4.036e-9
0.412, 4.043e-9
0.413, 4.050e-9
0.414, 4.057e-9
0.415, 4.062e-9
0.416, 4.069e-9
0.417, 4.076e-9
0.418, 4.081e-9
0.419, 4.087e-9
0.420, 4.093e-9
0.421, 4.100e-9
0.422, 4.106e-9
0.423, 4.111e-9
0.424, 4.117e-9
0.425, 4.122e-9
0.426, 4.129e-9
0.427, 4.134e-9
0.428, 4.141e-9
0.429, 4.146e-9
0.430, 4.152e-9
0.431, 4.159e-9
0.432, 4.164e-9
0.433, 4.171e-9
0.434, 4.178e-9
0.435, 4.183e-9
0.436, 4.188e-9
0.437, 4.194e-9
0.438, 4.201e-9
0.439, 4.206e-9
0.440, 4.212e-9
0.441, 4.217e-9
0.442, 4.223e-9
0.443, 4.231e-9
0.444, 4.237e-9
0.445, 4.242e-9
0.446, 4.249e-9
0.447, 4.255e-9
0.448, 4.260e-9
0.449, 4.266e-9
0.450, 4.272e-9
0.451, 4.280e-9
0.452, 4.287e-9
0.453, 4.293e-9
0.454, 4.299e-9
0.455, 4.305e-9
0.456, 4.312e-9
0.457, 4.318e-9
0.458, 4.324e-9
0.459, 4.330e-9
0.460, 4.336e-9
0.461, 4.341e-9
0.462, 4.348e-9
0.463, 4.354e-9
0.464, 4.361e-9
0.465, 4.368e-9
0.466, 4.375e-9
0.467, 4.381e-9
0.468, 4.387e-9
0.469, 4.394e-9
0.470, 4.401e-9
0.471, 4.407e-9
0.472, 4.415e-9
0.473, 4.421e-9
0.474, 4.425e-9
0.475, 4.433e-9
0.476, 4.442e-9
0.477, 4.447e-9
0.478, 4.454e-9
0.479, 4.461e-9
0.480, 4.468e-9
0.481, 4.476e-9
0.482, 4.484e-9
0.483, 4.489e-9
0.484, 4.496e-9
0.485, 4.503e-9
0.486, 4.513e-9
0.487, 4.519e-9
0.488, 4.526e-9
0.489, 4.534e-9
0.490, 4.541e-9
0.491, 4.549e-9
0.492, 4.557e-9
0.493, 4.564e-9
0.494, 4.572e-9
0.495, 4.579e-9
0.496, 4.588e-9
0.497, 4.595e-9
0.498, 4.603e-9
0.499, 4.614e-9
0.500, 4.575e-9
0.499, 4.388e-9
0.498, 4.266e-9
0.497, 4.184e-9
0.496, 4.119e-9
0.495, 4.057e-9
0.494, 4.000e-9
0.493, 3.949e-9
0.492, 3.900e-9
0.491, 3.852e-9
0.490, 3.808e-9
0.489, 3.767e-9
0.488, 3.725e-9
0.487, 3.683e-9
0.486, 3.644e-9
0.485, 3.606e-9
0.484, 3.571e-9
0.483, 3.535e-9
0.482, 3.500e-9
0.481, 3.467e-9
0.480, 3.434e-9
0.479, 3.401e-9
0.478, 3.369e-9
0.477, 3.338e-9
0.476, 3.309e-9
0.475, 3.280e-9
0.474, 3.250e-9
0.473, 3.224e-9
0.472, 3.194e-9
0.471, 3.166e-9
0.470, 3.139e-9
0.469, 3.111e-9
0.468, 3.085e-9
0.467, 3.059e-9
0.466, 3.033e-9
0.465, 3.010e-9
0.464, 2.986e-9
0.463, 2.960e-9
0.462, 2.936e-9
0.461, 2.912e-9
0.460, 2.889e-9
0.459, 2.866e-9
0.458, 2.842e-9
0.457, 2.819e-9
0.456, 2.796e-9
0.455, 2.773e-9
0.454, 2.752e-9
0.453, 2.731e-9
0.452, 2.710e-9
0.451, 2.689e-9
0.450, 2.666e-9
0.449, 2.645e-9
0.448, 2.627e-9
0.447, 2.607e-9
0.446, 2.586e-9
0.445, 2.566e-9
0.444, 2.545e-9
0.443, 2.525e-9
0.442, 2.505e-9
0.441, 2.486e-9
0.440, 2.466e-9
0.439, 2.447e-9
0.438, 2.429e-9
0.437, 2.409e-9
0.436, 2.391e-9
0.435, 2.373e-9
0.434, 2.354e-9
0.433, 2.335e-9
0.432, 2.318e-9
0.431, 2.300e-9
0.430, 2.282e-9
0.429, 2.264e-9
0.428, 2.247e-9
0.427, 2.230e-9
0.426, 2.213e-9
0.425, 2.197e-9
0.424, 2.179e-9
0.423, 2.161e-9
0.422, 2.144e-9
0.421, 2.127e-9
0.420, 2.111e-9
0.419, 2.095e-9
0.418, 2.078e-9
0.417, 2.062e-9
0.416, 2.045e-9
0.415, 2.028e-9
0.414, 2.013e-9
0.413, 1.998e-9
0.412, 1.982e-9
0.411, 1.966e-9
0.410, 1.952e-9
0.409, 1.942e-9
0.408, 1.923e-9
0.407, 1.906e-9
0.406, 1.891e-9
0.405, 1.876e-9
0.404, 1.859e-9
0.403, 1.844e-9
0.402, 1.828e-9
0.401, 1.813e-9
0.400, 1.799e-9
0.399, 1.784e-9
0.398, 1.769e-9
0.397, 1.755e-9
0.396, 1.742e-9
0.395, 1.729e-9
0.394, 1.712e-9
0.393, 1.696e-9
0.392, 1.681e-9
0.391, 1.665e-9
0.390, 1.651e-9
0.389, 1.636e-9
0.388, 1.622e-9
0.387, 1.609e-9
0.386, 1.594e-9
0.385, 1.580e-9
0.384, 1.566e-9
0.383, 1.551e-9
0.382, 1.536e-9
0.381, 1.522e-9
0.380, 1.509e-9
0.379, 1.496e-9
0.378, 1.483e-9
0.377, 1.470e-9
0.376, 1.455e-9
0.375, 1.442e-9
0.374, 1.429e-9
0.373, 1.414e-9
0.372, 1.400e-9
0.371, 1.387e-9
0.370, 1.374e-9
0.369, 1.360e-9
0.368, 1.346e-9
0.367, 1.333e-9
0.366, 1.321e-9
0.365, 1.307e-9
0.364, 1.294e-9
0.363, 1.282e-9
0.362, 1.270e-9
0.361, 1.257e-9
0.360, 1.244e-9
0.359, 1.231e-9
0.358, 1.219e-9
0.357, 1.205e-9
0.356, 1.192e-9
0.355, 1.180e-9
0.354, 1.167e-9
0.353, 1.154e-9
0.352, 1.142e-9
0.351, 1.129e-9
0.350, 1.116e-9
0.349, 1.104e-9
0.348, 1.092e-9
0.347, 1.080e-9
0.346, 1.068e-9
0.345, 1.056e-9
0.344, 1.043e-9
0.343, 1.032e-9
0.342, 1.020e-9
0.341, 1.007e-9
0.340, 9.952e-10
0.339, 9.837e-10
0.338, 9.712e-10
0.337, 9.590e-10
0.336, 9.482e-10
0.335, 9.364e-10
0.334, 9.252e-10
0.333, 9.130e-10
0.332, 9.021e-10
0.331, 8.901e-10
0.330, 8.783e-10
0.329, 8.667e-10
0.328, 8.552e-10
0.327, 8.437e-10
0.326, 8.327e-10
0.325, 8.217e-10
0.324, 8.096e-10
0.323, 7.987e-10
0.322, 7.881e-10
0.321, 7.775e-10
0.320, 7.664e-10
0.319, 7.551e-10
0.318, 7.439e-10
0.317, 7.331e-10
0.316, 7.232e-10
0.315, 7.119e-10
0.314, 7.002e-10
0.313, 6.886e-10
0.312, 6.780e-10
0.311, 6.663e-10
0.310, 6.564e-10
0.309, 6.461e-10
0.308, 6.348e-10
0.307, 6.186e-10
0.306, 6.087e-10
0.305, 6.006e-10
0.304, 5.912e-10
0.303, 5.800e-10
0.302, 5.696e-10
0.301, 5.593e-10
0.300, 5.492e-10
0.299, 5.394e-10
0.298, 5.288e-10
0.297, 5.194e-10
0.296, 5.086e-10
0.295, 4.972e-10
0.294, 4.887e-10
0.293, 4.782e-10
0.292, 4.689e-10
0.291, 4.597e-10
0.290, 4.486e-10
0.289, 4.384e-10
0.288, 4.291e-10
0.287, 4.182e-10
0.286, 4.088e-10
0.285, 3.993e-10
0.284, 3.895e-10
0.283, 3.800e-10
0.282, 3.703e-10
0.281, 3.612e-10
0.280, 3.520e-10
0.279, 3.431e-10
0.278, 3.343e-10
0.277, 3.245e-10
0.276, 3.146e-10
0.275, 3.067e-10
0.274, 2.984e-10
0.273, 2.895e-10
0.272, 2.798e-10
0.271, 2.709e-10
0.270, 2.624e-10
0.269, 2.534e-10
0.268, 2.449e-10
0.267, 2.361e-10
0.266, 2.288e-10
0.265, 2.209e-10
0.264, 2.121e-10
0.263, 2.031e-10
0.262, 1.946e-10
0.261, 1.860e-10
0.260, 1.785e-10
0.259, 1.704e-10
0.258, 1.625e-10
0.257, 1.563e-10
0.256, 1.486e-10
0.255, 1.388e-10
0.254, 1.305e-10
0.253, 1.232e-10
0.252, 1.151e-10
0.251, 1.060e-10
0.250, 9.691e-11
0.249, 8.897e-11
0.248, 8.130e-11
0.247, 7.312e-11
0.246, 6.602e-11
0.245, 5.725e-11
0.244, 4.967e-11
0.243, 4.241e-11
0.242, 3.419e-11
0.241, 2.707e-11
0.240, 2.099e-11
0.239, 1.477e-11
0.238, 8.582e-12
0.237, 1.696e-13
0.236, -6.352e-12
0.235, -1.223e-11
0.234, -2.052e-11
0.233, -2.736e-11
0.232, -3.478e-11
0.231, -4.112e-11
0.230, -4.585e-11
0.229, -5.434e-11
0.228, -6.114e-11
0.227, -6.622e-11
0.226, -7.171e-11
0.225, -7.859e-11
0.224, -8.580e-11
0.223, -9.308e-11
0.222, -9.793e-11
0.221, -1.033e-10
0.220, -1.101e-10
0.219, -1.173e-10
0.218, -1.235e-10
0.217, -1.272e-10
0.216, -1.338e-10
0.215, -1.402e-10
0.214, -1.446e-10
0.213, -1.506e-10
0.212, -1.575e-10
0.211, -1.633e-10
0.210, -1.681e-10
0.209, -1.723e-10
0.208, -1.778e-10
0.207, -1.841e-10
0.206, -1.891e-10
0.205, -1.922e-10
0.204, -1.954e-10
0.203, -2.045e-10
0.202, -2.111e-10
0.201, -2.149e-10
0.200, -2.196e-10
0.199, -2.256e-10
0.198, -2.309e-10
0.197, -2.365e-10
0.196, -2.420e-10
0.195, -2.451e-10
0.194, -2.490e-10
0.193, -2.543e-10
0.192, -2.584e-10
0.191, -2.637e-10
0.190, -2.696e-10
0.189, -2.756e-10
0.188, -2.806e-10
0.187, -2.853e-10
0.186, -2.905e-10
0.185, -2.973e-10
0.184, -3.027e-10
0.183, -3.072e-10
0.182, -3.111e-10
0.181, -3.157e-10
0.180, -3.207e-10
0.179, -3.241e-10
0.178, -3.275e-10
0.177, -3.323e-10
0.176, -3.363e-10
0.175, -3.410e-10
0.174, -3.461e-10
0.173, -3.511e-10
0.172, -3.558e-10
0.171, -3.607e-10
0.170, -3.649e-10
0.169, -3.684e-10
0.168, -3.728e-10
0.167, -3.776e-10
0.166, -3.819e-10
0.165, -3.858e-10
0.164, -3.903e-10
0.163, -3.960e-10
0.162, -4.006e-10
0.161, -4.045e-10
0.160, -4.092e-10
0.159, -4.134e-10
0.158, -4.184e-10
0.157, -4.224e-10
0.156, -4.267e-10
0.155, -4.308e-10
0.154, -4.346e-10
0.153, -4.378e-10
0.152, -4.432e-10
0.151, -4.478e-10
0.150, -4.515e-10
0.149, -4.555e-10
0.148, -4.604e-10
0.147, -4.661e-10
0.146, -4.708e-10
0.145, -4.757e-10
0.144, -4.796e-10
0.143, -4.850e-10
0.142, -4.893e-10
0.141, -4.932e-10
0.140, -4.968e-10
0.139, -5.020e-10
0.138, -5.058e-10
0.137, -5.096e-10
0.136, -5.142e-10
0.135, -5.187e-10
0.134, -5.239e-10
0.133, -5.282e-10
0.132, -5.325e-10
0.131, -5.367e-10
0.130, -5.408e-10
0.129, -5.468e-10
0.128, -5.503e-10
0.127, -5.552e-10
0.126, -5.601e-10
0.125, -5.640e-10
0.124, -5.682e-10
0.123, -5.721e-10
0.122, -5.767e-10
0.121, -5.810e-10
0.120, -5.866e-10
0.119, -5.913e-10
0.118, -5.954e-10
0.117, -6.012e-10
0.116, -6.063e-10
0.115, -6.092e-10
0.114, -6.149e-10
0.113, -6.200e-10
0.112, -6.248e-10
0.111, -6.286e-10
0.110, -6.335e-10
0.109, -6.383e-10
0.108, -6.427e-10
0.107, -6.470e-10
0.106, -6.520e-10
0.105, -6.567e-10
0.104, -6.623e-10
0.103, -6.681e-10
0.102, -6.757e-10
0.101, -6.785e-10
0.100, -6.835e-10
0.099, -6.875e-10
0.098, -6.919e-10
0.097, -6.962e-10
0.096, -7.010e-10
0.095, -7.063e-10
0.094, -7.113e-10
0.093, -7.159e-10
0.092, -7.210e-10
0.091, -7.270e-10
0.090, -7.322e-10
0.089, -7.350e-10
0.088, -7.401e-10
0.087, -7.457e-10
0.086, -7.512e-10
0.085, -7.562e-10
0.084, -7.606e-10
0.083, -7.661e-10
0.082, -7.718e-10
0.081, -7.774e-10
0.080, -7.814e-10
0.079, -7.869e-10
0.078, -7.917e-10
0.077, -7.973e-10
0.076, -8.017e-10
0.075, -8.073e-10
0.074, -8.134e-10
0.073, -8.184e-10
0.072, -8.235e-10
0.071, -8.282e-10
0.070, -8.343e-10
0.069, -8.402e-10
0.068, -8.448e-10
0.067, -8.500e-10
0.066, -8.557e-10
0.065, -8.609e-10
0.064, -8.661e-10
0.063, -8.721e-10
0.062, -8.780e-10
0.061, -8.829e-10
0.060, -8.880e-10
0.059, -8.931e-10
0.058, -9.001e-10
0.057, -9.049e-10
0.056, -9.108e-10
0.055, -9.168e-10
0.054, -9.216e-10
0.053, -9.272e-10
0.052, -9.336e-10
0.051, -9.388e-10
0.050, -9.442e-10
0.049, -9.490e-10
0.048, -9.549e-10
0.047, -9.624e-10
0.046, -9.672e-10
0.045, -9.730e-10
0.044, -9.794e-10
0.043, -9.847e-10
0.042, -9.909e-10
0.041, -9.961e-10
0.040, -1.002e-9
0.039, -1.008e-9
0.038, -1.013e-9
0.037, -1.019e-9
0.036, -1.025e-9
0.035, -1.030e-9
0.034, -1.036e-9
0.033, -1.043e-9
0.032, -1.049e-9
0.031, -1.054e-9
0.030, -1.060e-9
0.029, -1.067e-9
0.028, -1.073e-9
0.027, -1.078e-9
0.026, -1.084e-9
0.025, -1.090e-9
0.024, -1.097e-9
0.023, -1.102e-9
0.022, -1.108e-9
0.021, -1.115e-9
0.020, -1.121e-9
0.019, -1.127e-9
0.018, -1.133e-9
0.017, -1.139e-9
0.016, -1.145e-9
0.015, -1.151e-9
0.014, -1.157e-9
0.013, -1.165e-9
0.012, -1.171e-9
0.011, -1.176e-9
0.010, -1.183e-9
0.009, -1.188e-9
0.008, -1.194e-9
0.007, -1.201e-9
0.006, -1.207e-9
0.005, -1.212e-9
0.004, -1.219e-9
0.003, -1.225e-9
0.002, -1.231e-9
0.001, -1.237e-9
-0.000, -1.239e-9
-0.001, -1.246e-9
-0.002, -1.254e-9
-0.003, -1.261e-9
-0.004, -1.267e-9
-0.005, -1.274e-9
-0.006, -1.281e-9
-0.007, -1.287e-9
-0.008, -1.293e-9
-0.009, -1.300e-9
-0.010, -1.306e-9
-0.011, -1.312e-9
-0.012, -1.319e-9
-0.013, -1.325e-9
-0.014, -1.331e-9
-0.015, -1.338e-9
-0.016, -1.345e-9
-0.017, -1.352e-9
-0.018, -1.359e-9
-0.019, -1.365e-9
-0.020, -1.371e-9
-0.021, -1.377e-9
-0.022, -1.384e-9
-0.023, -1.389e-9
-0.024, -1.397e-9
-0.025, -1.403e-9
-0.026, -1.410e-9
-0.027, -1.418e-9
-0.028, -1.425e-9
-0.029, -1.432e-9
-0.030, -1.439e-9
-0.031, -1.446e-9
-0.032, -1.453e-9
-0.033, -1.462e-9
-0.034, -1.470e-9
-0.035, -1.477e-9
-0.036, -1.480e-9
-0.037, -1.487e-9
-0.038, -1.494e-9
-0.039, -1.502e-9
-0.040, -1.513e-9
-0.041, -1.524e-9
-0.042, -1.534e-9
-0.043, -1.545e-9
-0.044, -1.550e-9
-0.045, -1.552e-9
-0.046, -1.557e-9
-0.047, -1.562e-9
-0.048, -1.562e-9
-0.049, -1.568e-9
-0.050, -1.575e-9
-0.051, -1.580e-9
-0.052, -1.588e-9
-0.053, -1.596e-9
-0.054, -1.602e-9
-0.055, -1.610e-9
-0.056, -1.617e-9
-0.057, -1.629e-9
-0.058, -1.634e-9
-0.059, -1.639e-9
-0.060, -1.642e-9
-0.061, -1.636e-9
-0.062, -1.633e-9
-0.063, -1.636e-9
-0.064, -1.641e-9
-0.065, -1.650e-9
-0.066, -1.662e-9
-0.067, -1.674e-9
-0.068, -1.673e-9
-0.069, -1.673e-9
-0.070, -1.679e-9
-0.071, -1.690e-9
-0.072, -1.705e-9
-0.073, -1.712e-9
-0.074, -1.704e-9
-0.075, -1.706e-9
-0.076, -1.710e-9
-0.077, -1.716e-9
-0.078, -1.723e-9
-0.079, -1.730e-9
-0.080, -1.737e-9
-0.081, -1.748e-9
-0.082, -1.758e-9
-0.083, -1.762e-9
-0.084, -1.764e-9
-0.085, -1.770e-9
-0.086, -1.775e-9
-0.087, -1.780e-9
-0.088, -1.786e-9
-0.089, -1.792e-9
-0.090, -1.797e-9
-0.091, -1.801e-9
-0.092, -1.808e-9
-0.093, -1.813e-9
-0.094, -1.818e-9
-0.095, -1.824e-9
-0.096, -1.830e-9
-0.097, -1.836e-9
-0.098, -1.842e-9
-0.099, -1.846e-9
-0.100, -1.852e-9
-0.101, -1.858e-9
-0.102, -1.864e-9
-0.103, -1.873e-9
-0.104, -1.877e-9
-0.105, -1.887e-9
-0.106, -1.893e-9
-0.107, -1.896e-9
-0.108, -1.902e-9
-0.109, -1.909e-9
-0.110, -1.915e-9
-0.111, -1.923e-9
-0.112, -1.929e-9
-0.113, -1.935e-9
-0.114, -1.939e-9
-0.115, -1.943e-9
-0.116, -1.947e-9
-0.117, -1.952e-9
-0.118, -1.958e-9
-0.119, -1.962e-9
-0.120, -1.968e-9
-0.121, -1.974e-9
-0.122, -1.979e-9
-0.123, -1.986e-9
-0.124, -1.992e-9
-0.125, -1.997e-9
-0.126, -2.003e-9
-0.127, -2.010e-9
-0.128, -2.014e-9
-0.129, -2.017e-9
-0.130, -2.023e-9
-0.131, -2.029e-9
-0.132, -2.035e-9
-0.133, -2.040e-9
-0.134, -2.046e-9
-0.135, -2.053e-9
-0.136, -2.060e-9
-0.137, -2.067e-9
-0.138, -2.072e-9
-0.139, -2.076e-9
-0.140, -2.079e-9
-0.141, -2.083e-9
-0.142, -2.089e-9
-0.143, -2.096e-9
-0.144, -2.103e-9
-0.145, -2.109e-9
-0.146, -2.115e-9
-0.147, -2.120e-9
-0.148, -2.125e-9
-0.149, -2.129e-9
-0.150, -2.136e-9
-0.151, -2.141e-9
-0.152, -2.147e-9
-0.153, -2.152e-9
-0.154, -2.157e-9
-0.155, -2.163e-9
-0.156, -2.170e-9
-0.157, -2.174e-9
-0.158, -2.180e-9
-0.159, -2.190e-9
-0.160, -2.192e-9
-0.161, -2.196e-9
-0.162, -2.201e-9
-0.163, -2.207e-9
-0.164, -2.210e-9
-0.165, -2.216e-9
-0.166, -2.223e-9
-0.167, -2.225e-9
-0.168, -2.230e-9
-0.169, -2.236e-9
-0.170, -2.240e-9
-0.171, -2.245e-9
-0.172, -2.251e-9
-0.173, -2.257e-9
-0.174, -2.263e-9
-0.175, -2.269e-9
-0.176, -2.275e-9
-0.177, -2.280e-9
-0.178, -2.285e-9
-0.179, -2.291e-9
-0.180, -2.303e-9
-0.181, -2.323e-9
-0.182, -2.313e-9
-0.183, -2.314e-9
-0.184, -2.319e-9
-0.185, -2.323e-9
-0.186, -2.327e-9
-0.187, -2.332e-9
-0.188, -2.337e-9
-0.189, -2.341e-9
-0.190, -2.348e-9
-0.191, -2.353e-9
-0.192, -2.357e-9
-0.193, -2.362e-9
-0.194, -2.368e-9
-0.195, -2.373e-9
-0.196, -2.378e-9
-0.197, -2.383e-9
-0.198, -2.388e-9
-0.199, -2.393e-9
-0.200, -2.397e-9
-0.201, -2.403e-9
-0.202, -2.408e-9
-0.203, -2.413e-9
-0.204, -2.418e-9
-0.205, -2.420e-9
-0.206, -2.427e-9
-0.207, -2.433e-9
-0.208, -2.437e-9
-0.209, -2.442e-9
-0.210, -2.449e-9
-0.211, -2.453e-9
-0.212, -2.459e-9
-0.213, -2.465e-9
-0.214, -2.469e-9
-0.215, -2.474e-9
-0.216, -2.479e-9
-0.217, -2.486e-9
-0.218, -2.489e-9
-0.219, -2.495e-9
-0.220, -2.501e-9
-0.221, -2.505e-9
-0.222, -2.510e-9
-0.223, -2.516e-9
-0.224, -2.521e-9
-0.225, -2.526e-9
-0.226, -2.531e-9
-0.227, -2.536e-9
-0.228, -2.541e-9
-0.229, -2.547e-9
-0.230, -2.551e-9
-0.231, -2.556e-9
-0.232, -2.561e-9
-0.233, -2.566e-9
-0.234, -2.571e-9
-0.235, -2.575e-9
-0.236, -2.580e-9
-0.237, -2.585e-9
-0.238, -2.589e-9
-0.239, -2.593e-9
-0.240, -2.597e-9
-0.241, -2.602e-9
-0.242, -2.606e-9
-0.243, -2.610e-9
-0.244, -2.612e-9
-0.245, -2.617e-9
-0.246, -2.623e-9
-0.247, -2.628e-9
-0.248, -2.633e-9
-0.249, -2.639e-9
-0.250, -2.644e-9
-0.251, -2.651e-9
-0.252, -2.654e-9
-0.253, -2.659e-9
-0.254, -2.669e-9
-0.255, -2.676e-9
-0.256, -2.683e-9
-0.257, -2.689e-9
-0.258, -2.696e-9
-0.259, -2.705e-9
-0.260, -2.711e-9
-0.261, -2.715e-9
-0.262, -2.719e-9
-0.263, -2.722e-9
-0.264, -2.730e-9
-0.265, -2.738e-9
-0.266, -2.742e-9
-0.267, -2.747e-9
-0.268, -2.753e-9
-0.269, -2.758e-9
-0.270, -2.765e-9
-0.271, -2.771e-9
-0.272, -2.775e-9
-0.273, -2.779e-9
-0.274, -2.783e-9
-0.275, -2.788e-9
-0.276, -2.794e-9
-0.277, -2.797e-9
-0.278, -2.802e-9
-0.279, -2.807e-9
-0.280, -2.812e-9
-0.281, -2.816e-9
-0.282, -2.820e-9
-0.283, -2.825e-9
-0.284, -2.832e-9
-0.285, -2.835e-9
-0.286, -2.841e-9
-0.287, -2.846e-9
-0.288, -2.851e-9
-0.289, -2.854e-9
-0.290, -2.859e-9
-0.291, -2.864e-9
-0.292, -2.869e-9
-0.293, -2.875e-9
-0.294, -2.880e-9
-0.295, -2.885e-9
-0.296, -2.891e-9
-0.297, -2.896e-9
-0.298, -2.901e-9
-0.299, -2.906e-9
-0.300, -2.912e-9
-0.301, -2.917e-9
-0.302, -2.922e-9
-0.303, -2.928e-9
-0.304, -2.932e-9
-0.305, -2.937e-9
-0.306, -2.943e-9
-0.307, -2.950e-9
-0.308, -2.958e-9
-0.309, -2.961e-9
-0.310, -2.966e-9
-0.311, -2.968e-9
-0.312, -2.973e-9
-0.313, -2.980e-9
-0.314, -2.985e-9
-0.315, -2.988e-9
-0.316, -2.994e-9
-0.317, -3.000e-9
-0.318, -3.005e-9
-0.319, -3.010e-9
-0.320, -3.014e-9
-0.321, -3.020e-9
-0.322, -3.025e-9
-0.323, -3.029e-9
-0.324, -3.034e-9
-0.325, -3.040e-9
-0.326, -3.045e-9
-0.327, -3.052e-9
-0.328, -3.057e-9
-0.329, -3.061e-9
-0.330, -3.067e-9
-0.331, -3.073e-9
-0.332, -3.077e-9
-0.333, -3.080e-9
-0.334, -3.087e-9
-0.335, -3.092e-9
-0.336, -3.096e-9
-0.337, -3.102e-9
-0.338, -3.107e-9
-0.339, -3.113e-9
-0.340, -3.119e-9
-0.341, -3.124e-9
-0.342, -3.128e-9
-0.343, -3.134e-9
-0.344, -3.140e-9
-0.345, -3.143e-9
-0.346, -3.148e-9
-0.347, -3.155e-9
-0.348, -3.160e-9
-0.349, -3.164e-9
-0.350, -3.169e-9
-0.351, -3.175e-9
-0.352, -3.181e-9
-0.353, -3.186e-9
-0.354, -3.190e-9
-0.355, -3.195e-9
-0.356, -3.200e-9
-0.357, -3.204e-9
-0.358, -3.212e-9
-0.359, -3.218e-9
-0.360, -3.223e-9
-0.361, -3.230e-9
-0.362, -3.234e-9
-0.363, -3.240e-9
-0.364, -3.245e-9
-0.365, -3.251e-9
-0.366, -3.255e-9
-0.367, -3.263e-9
-0.368, -3.267e-9
-0.369, -3.273e-9
-0.370, -3.277e-9
-0.371, -3.281e-9
-0.372, -3.287e-9
-0.373, -3.293e-9
-0.374, -3.298e-9
-0.375, -3.303e-9
-0.376, -3.309e-9
-0.377, -3.315e-9
-0.378, -3.320e-9
-0.379, -3.325e-9
-0.380, -3.331e-9
-0.381, -3.336e-9
-0.382, -3.341e-9
-0.383, -3.348e-9
-0.384, -3.353e-9
-0.385, -3.358e-9
-0.386, -3.363e-9
-0.387, -3.368e-9
-0.388, -3.372e-9
-0.389, -3.378e-9
-0.390, -3.384e-9
-0.391, -3.390e-9
-0.392, -3.395e-9
-0.393, -3.400e-9
-0.394, -3.405e-9
-0.395, -3.412e-9
-0.396, -3.417e-9
-0.397, -3.421e-9
-0.398, -3.428e-9
-0.399, -3.433e-9
-0.400, -3.439e-9
-0.401, -3.444e-9
-0.402, -3.451e-9
-0.403, -3.458e-9
-0.404, -3.462e-9
-0.405, -3.467e-9
-0.406, -3.473e-9
-0.407, -3.477e-9
-0.408, -3.483e-9
-0.409, -3.488e-9
-0.410, -3.494e-9
-0.411, -3.500e-9
-0.412, -3.504e-9
-0.413, -3.509e-9
-0.414, -3.516e-9
-0.415, -3.522e-9
-0.416, -3.528e-9
-0.417, -3.534e-9
-0.418, -3.540e-9
-0.419, -3.546e-9
-0.420, -3.551e-9
-0.421, -3.558e-9
-0.422, -3.563e-9
-0.423, -3.567e-9
-0.424, -3.574e-9
-0.425, -3.579e-9
-0.426, -3.584e-9
-0.427, -3.589e-9
-0.428, -3.597e-9
-0.429, -3.604e-9
-0.430, -3.609e-9
-0.431, -3.615e-9
-0.432, -3.622e-9
-0.433, -3.627e-9
-0.434, -3.633e-9
-0.435, -3.639e-9
-0.436, -3.646e-9
-0.437, -3.654e-9
-0.438, -3.661e-9
-0.439, -3.668e-9
-0.440, -3.674e-9
-0.441, -3.680e-9
-0.442, -3.687e-9
-0.443, -3.693e-9
-0.444, -3.699e-9
-0.445, -3.704e-9
-0.446, -3.710e-9
-0.447, -3.718e-9
-0.448, -3.723e-9
-0.449, -3.728e-9
-0.450, -3.734e-9
-0.451, -3.741e-9
-0.452, -3.746e-9
-0.453, -3.752e-9
-0.454, -3.760e-9
-0.455, -3.765e-9
-0.456, -3.772e-9
-0.457, -3.778e-9
-0.458, -3.784e-9
-0.459, -3.791e-9
-0.460, -3.797e-9
-0.461, -3.801e-9
-0.462, -3.809e-9
-0.463, -3.816e-9
-0.464, -3.822e-9
-0.465, -3.828e-9
-0.466, -3.834e-9
-0.467, -3.842e-9
-0.468, -3.849e-9
-0.469, -3.855e-9
-0.470, -3.861e-9
-0.471, -3.866e-9
-0.472, -3.872e-9
-0.473, -3.879e-9
-0.474, -3.885e-9
-0.475, -3.891e-9
-0.476, -3.899e-9
-0.477, -3.905e-9
-0.478, -3.913e-9
-0.479, -3.919e-9
-0.480, -3.927e-9
-0.481, -3.936e-9
-0.482, -3.943e-9
-0.483, -3.950e-9
-0.484, -3.958e-9
-0.485, -3.966e-9
-0.486, -3.973e-9
-0.487, -3.978e-9
-0.488, -3.987e-9
-0.489, -3.995e-9
-0.490, -4.001e-9
-0.491, -4.007e-9
-0.492, -4.016e-9
-0.493, -4.024e-9
-0.494, -4.031e-9
-0.495, -4.038e-9
-0.496, -4.046e-9
-0.497, -4.052e-9
-0.498, -4.060e-9
-0.499, -4.066e-9
