Mar. 7, 2025   14:39:18
Cyclic Voltammetry
File: cv surface incubated 6.bin
Data Source:  Experiment
Instrument Model:  CHI920C
Ref. Electrode: 
Header: 
Note: 

Init E (V) = -0.5
High E (V) = 0.5
Low E (V) = -0.5
Init P/N = P
Scan Rate (V/s) = 0.05
Segment = 2
Sample Interval (V) = 0.001
Quiet Time (sec) = 10
Sensitivity (A/V) = 1e-8

Results:

Channel 1:
Segment 1:

Segment 2:

Potential/V, Current/A

-0.500, -1.977e-9
-0.499, -1.885e-9
-0.498, -1.833e-9
-0.497, -1.802e-9
-0.496, -1.776e-9
-0.495, -1.752e-9
-0.494, -1.731e-9
-0.493, -1.712e-9
-0.492, -1.692e-9
-0.491, -1.675e-9
-0.490, -1.657e-9
-0.489, -1.641e-9
-0.488, -1.625e-9
-0.487, -1.610e-9
-0.486, -1.595e-9
-0.485, -1.579e-9
-0.484, -1.564e-9
-0.483, -1.551e-9
-0.482, -1.537e-9
-0.481, -1.523e-9
-0.480, -1.510e-9
-0.479, -1.496e-9
-0.478, -1.483e-9
-0.477, -1.470e-9
-0.476, -1.458e-9
-0.475, -1.445e-9
-0.474, -1.434e-9
-0.473, -1.421e-9
-0.472, -1.407e-9
-0.471, -1.395e-9
-0.470, -1.385e-9
-0.469, -1.373e-9
-0.468, -1.362e-9
-0.467, -1.350e-9
-0.466, -1.338e-9
-0.465, -1.327e-9
-0.464, -1.316e-9
-0.463, -1.305e-9
-0.462, -1.294e-9
-0.461, -1.283e-9
-0.460, -1.273e-9
-0.459, -1.262e-9
-0.458, -1.250e-9
-0.457, -1.240e-9
-0.456, -1.229e-9
-0.455, -1.218e-9
-0.454, -1.208e-9
-0.453, -1.198e-9
-0.452, -1.188e-9
-0.451, -1.177e-9
-0.450, -1.167e-9
-0.449, -1.158e-9
-0.448, -1.147e-9
-0.447, -1.138e-9
-0.446, -1.128e-9
-0.445, -1.118e-9
-0.444, -1.108e-9
-0.443, -1.098e-9
-0.442, -1.088e-9
-0.441, -1.078e-9
-0.440, -1.068e-9
-0.439, -1.058e-9
-0.438, -1.050e-9
-0.437, -1.040e-9
-0.436, -1.030e-9
-0.435, -1.021e-9
-0.434, -1.011e-9
-0.433, -1.002e-9
-0.432, -9.918e-10
-0.431, -9.827e-10
-0.430, -9.737e-10
-0.429, -9.639e-10
-0.428, -9.555e-10
-0.427, -9.461e-10
-0.426, -9.368e-10
-0.425, -9.280e-10
-0.424, -9.190e-10
-0.423, -9.096e-10
-0.422, -9.026e-10
-0.421, -8.924e-10
-0.420, -8.829e-10
-0.419, -8.746e-10
-0.418, -8.655e-10
-0.417, -8.568e-10
-0.416, -8.473e-10
-0.415, -8.392e-10
-0.414, -8.306e-10
-0.413, -8.229e-10
-0.412, -8.148e-10
-0.411, -8.072e-10
-0.410, -7.977e-10
-0.409, -7.892e-10
-0.408, -7.806e-10
-0.407, -7.729e-10
-0.406, -7.651e-10
-0.405, -7.563e-10
-0.404, -7.477e-10
-0.403, -7.394e-10
-0.402, -7.311e-10
-0.401, -7.234e-10
-0.400, -7.152e-10
-0.399, -7.065e-10
-0.398, -6.988e-10
-0.397, -6.919e-10
-0.396, -6.838e-10
-0.395, -6.763e-10
-0.394, -6.680e-10
-0.393, -6.605e-10
-0.392, -6.514e-10
-0.391, -6.438e-10
-0.390, -6.345e-10
-0.389, -6.276e-10
-0.388, -6.190e-10
-0.387, -6.124e-10
-0.386, -6.040e-10
-0.385, -5.965e-10
-0.384, -5.902e-10
-0.383, -5.810e-10
-0.382, -5.718e-10
-0.381, -5.651e-10
-0.380, -5.577e-10
-0.379, -5.499e-10
-0.378, -5.421e-10
-0.377, -5.346e-10
-0.376, -5.268e-10
-0.375, -5.180e-10
-0.374, -5.118e-10
-0.373, -5.035e-10
-0.372, -4.957e-10
-0.371, -4.892e-10
-0.370, -4.808e-10
-0.369, -4.738e-10
-0.368, -4.664e-10
-0.367, -4.586e-10
-0.366, -4.517e-10
-0.365, -4.444e-10
-0.364, -4.364e-10
-0.363, -4.291e-10
-0.362, -4.209e-10
-0.361, -4.142e-10
-0.360, -4.074e-10
-0.359, -3.998e-10
-0.358, -3.930e-10
-0.357, -3.843e-10
-0.356, -3.780e-10
-0.355, -3.724e-10
-0.354, -3.651e-10
-0.353, -3.582e-10
-0.352, -3.505e-10
-0.351, -3.448e-10
-0.350, -3.377e-10
-0.349, -3.301e-10
-0.348, -3.239e-10
-0.347, -3.183e-10
-0.346, -3.099e-10
-0.345, -3.034e-10
-0.344, -2.959e-10
-0.343, -2.888e-10
-0.342, -2.828e-10
-0.341, -2.744e-10
-0.340, -2.677e-10
-0.339, -2.612e-10
-0.338, -2.546e-10
-0.337, -2.468e-10
-0.336, -2.401e-10
-0.335, -2.344e-10
-0.334, -2.289e-10
-0.333, -2.215e-10
-0.332, -2.137e-10
-0.331, -2.060e-10
-0.330, -1.996e-10
-0.329, -1.938e-10
-0.328, -1.865e-10
-0.327, -1.792e-10
-0.326, -1.722e-10
-0.325, -1.656e-10
-0.324, -1.602e-10
-0.323, -1.534e-10
-0.322, -1.465e-10
-0.321, -1.412e-10
-0.320, -1.342e-10
-0.319, -1.272e-10
-0.318, -1.207e-10
-0.317, -1.148e-10
-0.316, -1.090e-10
-0.315, -1.017e-10
-0.314, -9.567e-11
-0.313, -8.817e-11
-0.312, -8.268e-11
-0.311, -7.628e-11
-0.310, -7.100e-11
-0.309, -6.365e-11
-0.308, -5.697e-11
-0.307, -4.627e-11
-0.306, -4.146e-11
-0.305, -3.685e-11
-0.304, -3.183e-11
-0.303, -2.621e-11
-0.302, -2.010e-11
-0.301, -1.409e-11
-0.300, -7.132e-12
-0.299, -6.102e-13
-0.298, 6.330e-12
-0.297, 1.123e-11
-0.296, 1.801e-11
-0.295, 2.362e-11
-0.294, 2.971e-11
-0.293, 3.567e-11
-0.292, 4.190e-11
-0.291, 4.691e-11
-0.290, 5.395e-11
-0.289, 6.003e-11
-0.288, 6.685e-11
-0.287, 7.341e-11
-0.286, 7.898e-11
-0.285, 8.454e-11
-0.284, 9.019e-11
-0.283, 9.637e-11
-0.282, 1.025e-10
-0.281, 1.068e-10
-0.280, 1.133e-10
-0.279, 1.201e-10
-0.278, 1.258e-10
-0.277, 1.322e-10
-0.276, 1.380e-10
-0.275, 1.447e-10
-0.274, 1.505e-10
-0.273, 1.562e-10
-0.272, 1.619e-10
-0.271, 1.678e-10
-0.270, 1.731e-10
-0.269, 1.790e-10
-0.268, 1.834e-10
-0.267, 1.881e-10
-0.266, 1.944e-10
-0.265, 1.994e-10
-0.264, 2.056e-10
-0.263, 2.117e-10
-0.262, 2.177e-10
-0.261, 2.233e-10
-0.260, 2.290e-10
-0.259, 2.334e-10
-0.258, 2.393e-10
-0.257, 2.461e-10
-0.256, 2.509e-10
-0.255, 2.570e-10
-0.254, 2.623e-10
-0.253, 2.685e-10
-0.252, 2.746e-10
-0.251, 2.795e-10
-0.250, 2.859e-10
-0.249, 2.917e-10
-0.248, 2.971e-10
-0.247, 3.021e-10
-0.246, 3.063e-10
-0.245, 3.125e-10
-0.244, 3.187e-10
-0.243, 3.237e-10
-0.242, 3.286e-10
-0.241, 3.341e-10
-0.240, 3.388e-10
-0.239, 3.452e-10
-0.238, 3.502e-10
-0.237, 3.554e-10
-0.236, 3.604e-10
-0.235, 3.661e-10
-0.234, 3.718e-10
-0.233, 3.759e-10
-0.232, 3.815e-10
-0.231, 3.877e-10
-0.230, 3.928e-10
-0.229, 3.985e-10
-0.228, 4.026e-10
-0.227, 4.095e-10
-0.226, 4.149e-10
-0.225, 4.196e-10
-0.224, 4.248e-10
-0.223, 4.296e-10
-0.222, 4.350e-10
-0.221, 4.403e-10
-0.220, 4.450e-10
-0.219, 4.510e-10
-0.218, 4.563e-10
-0.217, 4.615e-10
-0.216, 4.673e-10
-0.215, 4.720e-10
-0.214, 4.759e-10
-0.213, 4.822e-10
-0.212, 4.880e-10
-0.211, 4.931e-10
-0.210, 4.988e-10
-0.209, 5.033e-10
-0.208, 5.079e-10
-0.207, 5.138e-10
-0.206, 5.185e-10
-0.205, 5.216e-10
-0.204, 5.260e-10
-0.203, 5.329e-10
-0.202, 5.386e-10
-0.201, 5.435e-10
-0.200, 5.483e-10
-0.199, 5.533e-10
-0.198, 5.583e-10
-0.197, 5.653e-10
-0.196, 5.702e-10
-0.195, 5.738e-10
-0.194, 5.785e-10
-0.193, 5.845e-10
-0.192, 5.905e-10
-0.191, 5.945e-10
-0.190, 5.986e-10
-0.189, 6.047e-10
-0.188, 6.093e-10
-0.187, 6.140e-10
-0.186, 6.200e-10
-0.185, 6.251e-10
-0.184, 6.303e-10
-0.183, 6.356e-10
-0.182, 6.397e-10
-0.181, 6.450e-10
-0.180, 6.490e-10
-0.179, 6.543e-10
-0.178, 6.595e-10
-0.177, 6.642e-10
-0.176, 6.685e-10
-0.175, 6.750e-10
-0.174, 6.794e-10
-0.173, 6.840e-10
-0.172, 6.885e-10
-0.171, 6.940e-10
-0.170, 6.992e-10
-0.169, 7.034e-10
-0.168, 7.087e-10
-0.167, 7.140e-10
-0.166, 7.179e-10
-0.165, 7.236e-10
-0.164, 7.279e-10
-0.163, 7.330e-10
-0.162, 7.381e-10
-0.161, 7.433e-10
-0.160, 7.487e-10
-0.159, 7.535e-10
-0.158, 7.583e-10
-0.157, 7.623e-10
-0.156, 7.670e-10
-0.155, 7.720e-10
-0.154, 7.778e-10
-0.153, 7.815e-10
-0.152, 7.870e-10
-0.151, 7.921e-10
-0.150, 7.954e-10
-0.149, 8.001e-10
-0.148, 8.057e-10
-0.147, 8.116e-10
-0.146, 8.164e-10
-0.145, 8.206e-10
-0.144, 8.266e-10
-0.143, 8.296e-10
-0.142, 8.345e-10
-0.141, 8.397e-10
-0.140, 8.446e-10
-0.139, 8.497e-10
-0.138, 8.546e-10
-0.137, 8.581e-10
-0.136, 8.633e-10
-0.135, 8.687e-10
-0.134, 8.729e-10
-0.133, 8.787e-10
-0.132, 8.830e-10
-0.131, 8.873e-10
-0.130, 8.929e-10
-0.129, 8.971e-10
-0.128, 9.022e-10
-0.127, 9.070e-10
-0.126, 9.122e-10
-0.125, 9.169e-10
-0.124, 9.205e-10
-0.123, 9.260e-10
-0.122, 9.318e-10
-0.121, 9.370e-10
-0.120, 9.407e-10
-0.119, 9.457e-10
-0.118, 9.504e-10
-0.117, 9.557e-10
-0.116, 9.596e-10
-0.115, 9.643e-10
-0.114, 9.692e-10
-0.113, 9.738e-10
-0.112, 9.778e-10
-0.111, 9.833e-10
-0.110, 9.887e-10
-0.109, 9.948e-10
-0.108, 9.993e-10
-0.107, 1.004e-9
-0.106, 1.008e-9
-0.105, 1.013e-9
-0.104, 1.020e-9
-0.103, 1.022e-9
-0.102, 1.030e-9
-0.101, 1.034e-9
-0.100, 1.039e-9
-0.099, 1.043e-9
-0.098, 1.048e-9
-0.097, 1.052e-9
-0.096, 1.058e-9
-0.095, 1.063e-9
-0.094, 1.066e-9
-0.093, 1.071e-9
-0.092, 1.076e-9
-0.091, 1.081e-9
-0.090, 1.085e-9
-0.089, 1.089e-9
-0.088, 1.095e-9
-0.087, 1.101e-9
-0.086, 1.105e-9
-0.085, 1.110e-9
-0.084, 1.115e-9
-0.083, 1.120e-9
-0.082, 1.125e-9
-0.081, 1.128e-9
-0.080, 1.134e-9
-0.079, 1.138e-9
-0.078, 1.144e-9
-0.077, 1.148e-9
-0.076, 1.152e-9
-0.075, 1.158e-9
-0.074, 1.163e-9
-0.073, 1.166e-9
-0.072, 1.171e-9
-0.071, 1.177e-9
-0.070, 1.183e-9
-0.069, 1.188e-9
-0.068, 1.191e-9
-0.067, 1.196e-9
-0.066, 1.202e-9
-0.065, 1.206e-9
-0.064, 1.211e-9
-0.063, 1.216e-9
-0.062, 1.221e-9
-0.061, 1.225e-9
-0.060, 1.230e-9
-0.059, 1.235e-9
-0.058, 1.240e-9
-0.057, 1.244e-9
-0.056, 1.249e-9
-0.055, 1.254e-9
-0.054, 1.259e-9
-0.053, 1.263e-9
-0.052, 1.269e-9
-0.051, 1.273e-9
-0.050, 1.278e-9
-0.049, 1.284e-9
-0.048, 1.288e-9
-0.047, 1.293e-9
-0.046, 1.297e-9
-0.045, 1.303e-9
-0.044, 1.308e-9
-0.043, 1.312e-9
-0.042, 1.317e-9
-0.041, 1.323e-9
-0.040, 1.328e-9
-0.039, 1.333e-9
-0.038, 1.336e-9
-0.037, 1.342e-9
-0.036, 1.348e-9
-0.035, 1.352e-9
-0.034, 1.356e-9
-0.033, 1.362e-9
-0.032, 1.367e-9
-0.031, 1.372e-9
-0.030, 1.377e-9
-0.029, 1.382e-9
-0.028, 1.386e-9
-0.027, 1.391e-9
-0.026, 1.396e-9
-0.025, 1.400e-9
-0.024, 1.406e-9
-0.023, 1.411e-9
-0.022, 1.415e-9
-0.021, 1.421e-9
-0.020, 1.427e-9
-0.019, 1.430e-9
-0.018, 1.436e-9
-0.017, 1.440e-9
-0.016, 1.445e-9
-0.015, 1.450e-9
-0.014, 1.456e-9
-0.013, 1.460e-9
-0.012, 1.464e-9
-0.011, 1.470e-9
-0.010, 1.476e-9
-0.009, 1.479e-9
-0.008, 1.485e-9
-0.007, 1.490e-9
-0.006, 1.495e-9
-0.005, 1.501e-9
-0.004, 1.506e-9
-0.003, 1.509e-9
-0.002, 1.515e-9
-0.001, 1.520e-9
0.000, 1.521e-9
0.001, 1.525e-9
0.002, 1.532e-9
0.003, 1.538e-9
0.004, 1.543e-9
0.005, 1.548e-9
0.006, 1.554e-9
0.007, 1.559e-9
0.008, 1.563e-9
0.009, 1.568e-9
0.010, 1.572e-9
0.011, 1.578e-9
0.012, 1.582e-9
0.013, 1.588e-9
0.014, 1.594e-9
0.015, 1.598e-9
0.016, 1.602e-9
0.017, 1.608e-9
0.018, 1.614e-9
0.019, 1.619e-9
0.020, 1.623e-9
0.021, 1.629e-9
0.022, 1.634e-9
0.023, 1.638e-9
0.024, 1.643e-9
0.025, 1.649e-9
0.026, 1.654e-9
0.027, 1.659e-9
0.028, 1.663e-9
0.029, 1.669e-9
0.030, 1.675e-9
0.031, 1.679e-9
0.032, 1.684e-9
0.033, 1.691e-9
0.034, 1.696e-9
0.035, 1.700e-9
0.036, 1.705e-9
0.037, 1.711e-9
0.038, 1.716e-9
0.039, 1.720e-9
0.040, 1.725e-9
0.041, 1.730e-9
0.042, 1.735e-9
0.043, 1.741e-9
0.044, 1.746e-9
0.045, 1.751e-9
0.046, 1.755e-9
0.047, 1.760e-9
0.048, 1.766e-9
0.049, 1.770e-9
0.050, 1.776e-9
0.051, 1.781e-9
0.052, 1.785e-9
0.053, 1.790e-9
0.054, 1.795e-9
0.055, 1.800e-9
0.056, 1.806e-9
0.057, 1.812e-9
0.058, 1.816e-9
0.059, 1.821e-9
0.060, 1.826e-9
0.061, 1.832e-9
0.062, 1.836e-9
0.063, 1.841e-9
0.064, 1.847e-9
0.065, 1.852e-9
0.066, 1.857e-9
0.067, 1.862e-9
0.068, 1.867e-9
0.069, 1.874e-9
0.070, 1.880e-9
0.071, 1.885e-9
0.072, 1.890e-9
0.073, 1.896e-9
0.074, 1.900e-9
0.075, 1.906e-9
0.076, 1.911e-9
0.077, 1.917e-9
0.078, 1.922e-9
0.079, 1.928e-9
0.080, 1.934e-9
0.081, 1.939e-9
0.082, 1.944e-9
0.083, 1.950e-9
0.084, 1.956e-9
0.085, 1.961e-9
0.086, 1.966e-9
0.087, 1.971e-9
0.088, 1.977e-9
0.089, 1.983e-9
0.090, 1.988e-9
0.091, 1.995e-9
0.092, 2.002e-9
0.093, 2.006e-9
0.094, 2.012e-9
0.095, 2.019e-9
0.096, 2.026e-9
0.097, 2.031e-9
0.098, 2.037e-9
0.099, 2.044e-9
0.100, 2.051e-9
0.101, 2.058e-9
0.102, 2.066e-9
0.103, 2.078e-9
0.104, 2.083e-9
0.105, 2.089e-9
0.106, 2.095e-9
0.107, 2.103e-9
0.108, 2.108e-9
0.109, 2.113e-9
0.110, 2.118e-9
0.111, 2.122e-9
0.112, 2.126e-9
0.113, 2.133e-9
0.114, 2.141e-9
0.115, 2.143e-9
0.116, 2.144e-9
0.117, 2.150e-9
0.118, 2.156e-9
0.119, 2.158e-9
0.120, 2.163e-9
0.121, 2.168e-9
0.122, 2.175e-9
0.123, 2.181e-9
0.124, 2.186e-9
0.125, 2.192e-9
0.126, 2.199e-9
0.127, 2.206e-9
0.128, 2.213e-9
0.129, 2.219e-9
0.130, 2.225e-9
0.131, 2.232e-9
0.132, 2.238e-9
0.133, 2.245e-9
0.134, 2.252e-9
0.135, 2.258e-9
0.136, 2.265e-9
0.137, 2.272e-9
0.138, 2.278e-9
0.139, 2.284e-9
0.140, 2.292e-9
0.141, 2.298e-9
0.142, 2.304e-9
0.143, 2.310e-9
0.144, 2.318e-9
0.145, 2.326e-9
0.146, 2.331e-9
0.147, 2.339e-9
0.148, 2.347e-9
0.149, 2.354e-9
0.150, 2.361e-9
0.151, 2.367e-9
0.152, 2.375e-9
0.153, 2.382e-9
0.154, 2.388e-9
0.155, 2.395e-9
0.156, 2.403e-9
0.157, 2.409e-9
0.158, 2.417e-9
0.159, 2.425e-9
0.160, 2.432e-9
0.161, 2.439e-9
0.162, 2.447e-9
0.163, 2.455e-9
0.164, 2.461e-9
0.165, 2.468e-9
0.166, 2.479e-9
0.167, 2.485e-9
0.168, 2.491e-9
0.169, 2.497e-9
0.170, 2.505e-9
0.171, 2.514e-9
0.172, 2.520e-9
0.173, 2.526e-9
0.174, 2.536e-9
0.175, 2.545e-9
0.176, 2.551e-9
0.177, 2.558e-9
0.178, 2.566e-9
0.179, 2.575e-9
0.180, 2.581e-9
0.181, 2.588e-9
0.182, 2.596e-9
0.183, 2.604e-9
0.184, 2.613e-9
0.185, 2.620e-9
0.186, 2.627e-9
0.187, 2.635e-9
0.188, 2.643e-9
0.189, 2.649e-9
0.190, 2.656e-9
0.191, 2.663e-9
0.192, 2.670e-9
0.193, 2.678e-9
0.194, 2.684e-9
0.195, 2.692e-9
0.196, 2.699e-9
0.197, 2.709e-9
0.198, 2.715e-9
0.199, 2.720e-9
0.200, 2.728e-9
0.201, 2.736e-9
0.202, 2.742e-9
0.203, 2.748e-9
0.204, 2.756e-9
0.205, 2.759e-9
0.206, 2.767e-9
0.207, 2.773e-9
0.208, 2.778e-9
0.209, 2.786e-9
0.210, 2.794e-9
0.211, 2.801e-9
0.212, 2.807e-9
0.213, 2.814e-9
0.214, 2.821e-9
0.215, 2.828e-9
0.216, 2.835e-9
0.217, 2.841e-9
0.218, 2.848e-9
0.219, 2.856e-9
0.220, 2.863e-9
0.221, 2.869e-9
0.222, 2.876e-9
0.223, 2.883e-9
0.224, 2.889e-9
0.225, 2.895e-9
0.226, 2.902e-9
0.227, 2.910e-9
0.228, 2.916e-9
0.229, 2.922e-9
0.230, 2.928e-9
0.231, 2.935e-9
0.232, 2.942e-9
0.233, 2.948e-9
0.234, 2.954e-9
0.235, 2.961e-9
0.236, 2.968e-9
0.237, 2.974e-9
0.238, 2.981e-9
0.239, 2.987e-9
0.240, 2.994e-9
0.241, 3.000e-9
0.242, 3.006e-9
0.243, 3.011e-9
0.244, 3.018e-9
0.245, 3.025e-9
0.246, 3.031e-9
0.247, 3.038e-9
0.248, 3.045e-9
0.249, 3.053e-9
0.250, 3.060e-9
0.251, 3.066e-9
0.252, 3.073e-9
0.253, 3.080e-9
0.254, 3.086e-9
0.255, 3.091e-9
0.256, 3.097e-9
0.257, 3.103e-9
0.258, 3.110e-9
0.259, 3.116e-9
0.260, 3.120e-9
0.261, 3.128e-9
0.262, 3.134e-9
0.263, 3.140e-9
0.264, 3.145e-9
0.265, 3.152e-9
0.266, 3.158e-9
0.267, 3.165e-9
0.268, 3.170e-9
0.269, 3.175e-9
0.270, 3.182e-9
0.271, 3.188e-9
0.272, 3.194e-9
0.273, 3.200e-9
0.274, 3.205e-9
0.275, 3.212e-9
0.276, 3.218e-9
0.277, 3.223e-9
0.278, 3.229e-9
0.279, 3.235e-9
0.280, 3.242e-9
0.281, 3.248e-9
0.282, 3.252e-9
0.283, 3.258e-9
0.284, 3.265e-9
0.285, 3.269e-9
0.286, 3.275e-9
0.287, 3.281e-9
0.288, 3.286e-9
0.289, 3.292e-9
0.290, 3.297e-9
0.291, 3.302e-9
0.292, 3.308e-9
0.293, 3.314e-9
0.294, 3.319e-9
0.295, 3.324e-9
0.296, 3.331e-9
0.297, 3.338e-9
0.298, 3.343e-9
0.299, 3.348e-9
0.300, 3.353e-9
0.301, 3.358e-9
0.302, 3.364e-9
0.303, 3.367e-9
0.304, 3.373e-9
0.305, 3.379e-9
0.306, 3.384e-9
0.307, 3.391e-9
0.308, 3.401e-9
0.309, 3.405e-9
0.310, 3.409e-9
0.311, 3.414e-9
0.312, 3.419e-9
0.313, 3.424e-9
0.314, 3.430e-9
0.315, 3.436e-9
0.316, 3.441e-9
0.317, 3.446e-9
0.318, 3.451e-9
0.319, 3.458e-9
0.320, 3.463e-9
0.321, 3.467e-9
0.322, 3.472e-9
0.323, 3.477e-9
0.324, 3.481e-9
0.325, 3.485e-9
0.326, 3.491e-9
0.327, 3.497e-9
0.328, 3.502e-9
0.329, 3.507e-9
0.330, 3.510e-9
0.331, 3.516e-9
0.332, 3.523e-9
0.333, 3.527e-9
0.334, 3.533e-9
0.335, 3.539e-9
0.336, 3.544e-9
0.337, 3.550e-9
0.338, 3.555e-9
0.339, 3.560e-9
0.340, 3.566e-9
0.341, 3.570e-9
0.342, 3.576e-9
0.343, 3.580e-9
0.344, 3.585e-9
0.345, 3.592e-9
0.346, 3.595e-9
0.347, 3.600e-9
0.348, 3.606e-9
0.349, 3.612e-9
0.350, 3.619e-9
0.351, 3.624e-9
0.352, 3.629e-9
0.353, 3.633e-9
0.354, 3.639e-9
0.355, 3.646e-9
0.356, 3.650e-9
0.357, 3.655e-9
0.358, 3.661e-9
0.359, 3.665e-9
0.360, 3.671e-9
0.361, 3.676e-9
0.362, 3.681e-9
0.363, 3.686e-9
0.364, 3.692e-9
0.365, 3.695e-9
0.366, 3.702e-9
0.367, 3.707e-9
0.368, 3.712e-9
0.369, 3.718e-9
0.370, 3.723e-9
0.371, 3.729e-9
0.372, 3.734e-9
0.373, 3.739e-9
0.374, 3.744e-9
0.375, 3.750e-9
0.376, 3.756e-9
0.377, 3.760e-9
0.378, 3.767e-9
0.379, 3.772e-9
0.380, 3.777e-9
0.381, 3.782e-9
0.382, 3.788e-9
0.383, 3.793e-9
0.384, 3.798e-9
0.385, 3.803e-9
0.386, 3.809e-9
0.387, 3.816e-9
0.388, 3.821e-9
0.389, 3.826e-9
0.390, 3.833e-9
0.391, 3.840e-9
0.392, 3.845e-9
0.393, 3.850e-9
0.394, 3.855e-9
0.395, 3.862e-9
0.396, 3.867e-9
0.397, 3.872e-9
0.398, 3.879e-9
0.399, 3.885e-9
0.400, 3.892e-9
0.401, 3.898e-9
0.402, 3.904e-9
0.403, 3.910e-9
0.404, 3.916e-9
0.405, 3.923e-9
0.406, 3.931e-9
0.407, 3.936e-9
0.408, 3.940e-9
0.409, 3.946e-9
0.410, 3.945e-9
0.411, 3.953e-9
0.412, 3.960e-9
0.413, 3.967e-9
0.414, 3.975e-9
0.415, 3.980e-9
0.416, 3.987e-9
0.417, 3.994e-9
0.418, 4.000e-9
0.419, 4.005e-9
0.420, 4.010e-9
0.421, 4.017e-9
0.422, 4.024e-9
0.423, 4.029e-9
0.424, 4.035e-9
0.425, 4.041e-9
0.426, 4.048e-9
0.427, 4.053e-9
0.428, 4.058e-9
0.429, 4.065e-9
0.430, 4.074e-9
0.431, 4.079e-9
0.432, 4.084e-9
0.433, 4.090e-9
0.434, 4.096e-9
0.435, 4.103e-9
0.436, 4.108e-9
0.437, 4.112e-9
0.438, 4.118e-9
0.439, 4.123e-9
0.440, 4.129e-9
0.441, 4.136e-9
0.442, 4.142e-9
0.443, 4.147e-9
0.444, 4.153e-9
0.445, 4.159e-9
0.446, 4.165e-9
0.447, 4.171e-9
0.448, 4.176e-9
0.449, 4.182e-9
0.450, 4.187e-9
0.451, 4.193e-9
0.452, 4.198e-9
0.453, 4.203e-9
0.454, 4.209e-9
0.455, 4.215e-9
0.456, 4.221e-9
0.457, 4.227e-9
0.458, 4.233e-9
0.459, 4.238e-9
0.460, 4.244e-9
0.461, 4.250e-9
0.462, 4.257e-9
0.463, 4.263e-9
0.464, 4.269e-9
0.465, 4.275e-9
0.466, 4.281e-9
0.467, 4.288e-9
0.468, 4.293e-9
0.469, 4.299e-9
0.470, 4.304e-9
0.471, 4.310e-9
0.472, 4.318e-9
0.473, 4.324e-9
0.474, 4.330e-9
0.475, 4.336e-9
0.476, 4.344e-9
0.477, 4.350e-9
0.478, 4.357e-9
0.479, 4.363e-9
0.480, 4.369e-9
0.481, 4.377e-9
0.482, 4.384e-9
0.483, 4.391e-9
0.484, 4.399e-9
0.485, 4.405e-9
0.486, 4.411e-9
0.487, 4.417e-9
0.488, 4.425e-9
0.489, 4.434e-9
0.490, 4.440e-9
0.491, 4.448e-9
0.492, 4.457e-9
0.493, 4.465e-9
0.494, 4.471e-9
0.495, 4.479e-9
0.496, 4.487e-9
0.497, 4.496e-9
0.498, 4.503e-9
0.499, 4.510e-9
0.500, 4.469e-9
0.499, 4.283e-9
0.498, 4.161e-9
0.497, 4.081e-9
0.496, 4.015e-9
0.495, 3.958e-9
0.494, 3.904e-9
0.493, 3.854e-9
0.492, 3.807e-9
0.491, 3.760e-9
0.490, 3.717e-9
0.489, 3.675e-9
0.488, 3.635e-9
0.487, 3.597e-9
0.486, 3.561e-9
0.485, 3.524e-9
0.484, 3.489e-9
0.483, 3.454e-9
0.482, 3.421e-9
0.481, 3.389e-9
0.480, 3.356e-9
0.479, 3.325e-9
0.478, 3.295e-9
0.477, 3.266e-9
0.476, 3.238e-9
0.475, 3.209e-9
0.474, 3.181e-9
0.473, 3.154e-9
0.472, 3.126e-9
0.471, 3.098e-9
0.470, 3.074e-9
0.469, 3.048e-9
0.468, 3.023e-9
0.467, 2.998e-9
0.466, 2.973e-9
0.465, 2.948e-9
0.464, 2.925e-9
0.463, 2.901e-9
0.462, 2.878e-9
0.461, 2.855e-9
0.460, 2.834e-9
0.459, 2.810e-9
0.458, 2.787e-9
0.457, 2.765e-9
0.456, 2.744e-9
0.455, 2.722e-9
0.454, 2.701e-9
0.453, 2.680e-9
0.452, 2.660e-9
0.451, 2.640e-9
0.450, 2.619e-9
0.449, 2.599e-9
0.448, 2.579e-9
0.447, 2.560e-9
0.446, 2.541e-9
0.445, 2.522e-9
0.444, 2.502e-9
0.443, 2.484e-9
0.442, 2.464e-9
0.441, 2.444e-9
0.440, 2.425e-9
0.439, 2.407e-9
0.438, 2.390e-9
0.437, 2.371e-9
0.436, 2.351e-9
0.435, 2.332e-9
0.434, 2.313e-9
0.433, 2.295e-9
0.432, 2.281e-9
0.431, 2.267e-9
0.430, 2.251e-9
0.429, 2.234e-9
0.428, 2.218e-9
0.427, 2.202e-9
0.426, 2.185e-9
0.425, 2.168e-9
0.424, 2.150e-9
0.423, 2.131e-9
0.422, 2.114e-9
0.421, 2.096e-9
0.420, 2.079e-9
0.419, 2.064e-9
0.418, 2.048e-9
0.417, 2.033e-9
0.416, 2.018e-9
0.415, 2.003e-9
0.414, 1.988e-9
0.413, 1.972e-9
0.412, 1.955e-9
0.411, 1.939e-9
0.410, 1.924e-9
0.409, 1.913e-9
0.408, 1.894e-9
0.407, 1.879e-9
0.406, 1.865e-9
0.405, 1.852e-9
0.404, 1.837e-9
0.403, 1.819e-9
0.402, 1.803e-9
0.401, 1.788e-9
0.400, 1.774e-9
0.399, 1.759e-9
0.398, 1.746e-9
0.397, 1.731e-9
0.396, 1.716e-9
0.395, 1.701e-9
0.394, 1.687e-9
0.393, 1.674e-9
0.392, 1.660e-9
0.391, 1.646e-9
0.390, 1.632e-9
0.389, 1.617e-9
0.388, 1.603e-9
0.387, 1.589e-9
0.386, 1.575e-9
0.385, 1.561e-9
0.384, 1.546e-9
0.383, 1.533e-9
0.382, 1.519e-9
0.381, 1.506e-9
0.380, 1.493e-9
0.379, 1.480e-9
0.378, 1.467e-9
0.377, 1.453e-9
0.376, 1.439e-9
0.375, 1.427e-9
0.374, 1.414e-9
0.373, 1.400e-9
0.372, 1.387e-9
0.371, 1.375e-9
0.370, 1.362e-9
0.369, 1.349e-9
0.368, 1.335e-9
0.367, 1.323e-9
0.366, 1.310e-9
0.365, 1.296e-9
0.364, 1.283e-9
0.363, 1.271e-9
0.362, 1.260e-9
0.361, 1.248e-9
0.360, 1.234e-9
0.359, 1.220e-9
0.358, 1.209e-9
0.357, 1.197e-9
0.356, 1.185e-9
0.355, 1.172e-9
0.354, 1.160e-9
0.353, 1.148e-9
0.352, 1.136e-9
0.351, 1.123e-9
0.350, 1.111e-9
0.349, 1.099e-9
0.348, 1.086e-9
0.347, 1.074e-9
0.346, 1.062e-9
0.345, 1.051e-9
0.344, 1.039e-9
0.343, 1.026e-9
0.342, 1.014e-9
0.341, 1.003e-9
0.340, 9.925e-10
0.339, 9.829e-10
0.338, 9.716e-10
0.337, 9.598e-10
0.336, 9.471e-10
0.335, 9.345e-10
0.334, 9.226e-10
0.333, 9.113e-10
0.332, 8.998e-10
0.331, 8.858e-10
0.330, 8.732e-10
0.329, 8.624e-10
0.328, 8.548e-10
0.327, 8.461e-10
0.326, 8.302e-10
0.325, 8.109e-10
0.324, 8.002e-10
0.323, 7.925e-10
0.322, 7.840e-10
0.321, 7.739e-10
0.320, 7.644e-10
0.319, 7.531e-10
0.318, 7.421e-10
0.317, 7.325e-10
0.316, 7.211e-10
0.315, 7.094e-10
0.314, 6.998e-10
0.313, 6.890e-10
0.312, 6.779e-10
0.311, 6.665e-10
0.310, 6.570e-10
0.309, 6.466e-10
0.308, 6.353e-10
0.307, 6.205e-10
0.306, 6.111e-10
0.305, 6.022e-10
0.304, 5.925e-10
0.303, 5.822e-10
0.302, 5.712e-10
0.301, 5.611e-10
0.300, 5.499e-10
0.299, 5.405e-10
0.298, 5.312e-10
0.297, 5.216e-10
0.296, 5.115e-10
0.295, 5.016e-10
0.294, 4.925e-10
0.293, 4.831e-10
0.292, 4.720e-10
0.291, 4.635e-10
0.290, 4.533e-10
0.289, 4.444e-10
0.288, 4.349e-10
0.287, 4.258e-10
0.286, 4.170e-10
0.285, 4.075e-10
0.284, 3.980e-10
0.283, 3.880e-10
0.282, 3.785e-10
0.281, 3.693e-10
0.280, 3.593e-10
0.279, 3.502e-10
0.278, 3.433e-10
0.277, 3.340e-10
0.276, 3.248e-10
0.275, 3.155e-10
0.274, 3.064e-10
0.273, 2.981e-10
0.272, 2.898e-10
0.271, 2.806e-10
0.270, 2.719e-10
0.269, 2.629e-10
0.268, 2.543e-10
0.267, 2.438e-10
0.266, 2.346e-10
0.265, 2.276e-10
0.264, 2.193e-10
0.263, 2.111e-10
0.262, 2.034e-10
0.261, 1.962e-10
0.260, 1.887e-10
0.259, 1.814e-10
0.258, 1.716e-10
0.257, 1.627e-10
0.256, 1.547e-10
0.255, 1.465e-10
0.254, 1.384e-10
0.253, 1.311e-10
0.252, 1.248e-10
0.251, 1.177e-10
0.250, 1.090e-10
0.249, 1.022e-10
0.248, 9.469e-11
0.247, 8.742e-11
0.246, 7.966e-11
0.245, 7.200e-11
0.244, 6.541e-11
0.243, 5.911e-11
0.242, 5.148e-11
0.241, 4.442e-11
0.240, 3.813e-11
0.239, 3.201e-11
0.238, 2.514e-11
0.237, 1.786e-11
0.236, 1.185e-11
0.235, 5.882e-12
0.234, -1.994e-12
0.233, -8.701e-12
0.232, -1.595e-11
0.231, -2.239e-11
0.230, -2.664e-11
0.229, -3.283e-11
0.228, -3.952e-11
0.227, -4.535e-11
0.226, -5.241e-11
0.225, -5.880e-11
0.224, -6.453e-11
0.223, -6.997e-11
0.222, -7.619e-11
0.221, -8.288e-11
0.220, -8.892e-11
0.219, -9.581e-11
0.218, -1.028e-10
0.217, -1.084e-10
0.216, -1.140e-10
0.215, -1.202e-10
0.214, -1.252e-10
0.213, -1.310e-10
0.212, -1.365e-10
0.211, -1.426e-10
0.210, -1.476e-10
0.209, -1.519e-10
0.208, -1.577e-10
0.207, -1.622e-10
0.206, -1.668e-10
0.205, -1.701e-10
0.204, -1.745e-10
0.203, -1.821e-10
0.202, -1.877e-10
0.201, -1.928e-10
0.200, -1.974e-10
0.199, -2.022e-10
0.198, -2.069e-10
0.197, -2.122e-10
0.196, -2.178e-10
0.195, -2.227e-10
0.194, -2.273e-10
0.193, -2.325e-10
0.192, -2.369e-10
0.191, -2.422e-10
0.190, -2.469e-10
0.189, -2.516e-10
0.188, -2.559e-10
0.187, -2.607e-10
0.186, -2.663e-10
0.185, -2.711e-10
0.184, -2.748e-10
0.183, -2.797e-10
0.182, -2.838e-10
0.181, -2.891e-10
0.180, -2.945e-10
0.179, -2.980e-10
0.178, -3.026e-10
0.177, -3.074e-10
0.176, -3.107e-10
0.175, -3.146e-10
0.174, -3.193e-10
0.173, -3.253e-10
0.172, -3.305e-10
0.171, -3.355e-10
0.170, -3.391e-10
0.169, -3.426e-10
0.168, -3.465e-10
0.167, -3.497e-10
0.166, -3.543e-10
0.165, -3.598e-10
0.164, -3.637e-10
0.163, -3.678e-10
0.162, -3.730e-10
0.161, -3.778e-10
0.160, -3.823e-10
0.159, -3.868e-10
0.158, -3.910e-10
0.157, -3.943e-10
0.156, -3.991e-10
0.155, -4.042e-10
0.154, -4.079e-10
0.153, -4.120e-10
0.152, -4.163e-10
0.151, -4.207e-10
0.150, -4.245e-10
0.149, -4.287e-10
0.148, -4.333e-10
0.147, -4.384e-10
0.146, -4.426e-10
0.145, -4.469e-10
0.144, -4.498e-10
0.143, -4.554e-10
0.142, -4.597e-10
0.141, -4.629e-10
0.140, -4.667e-10
0.139, -4.718e-10
0.138, -4.776e-10
0.137, -4.829e-10
0.136, -4.867e-10
0.135, -4.895e-10
0.134, -4.944e-10
0.133, -4.982e-10
0.132, -5.023e-10
0.131, -5.062e-10
0.130, -5.121e-10
0.129, -5.181e-10
0.128, -5.236e-10
0.127, -5.274e-10
0.126, -5.305e-10
0.125, -5.334e-10
0.124, -5.356e-10
0.123, -5.381e-10
0.122, -5.429e-10
0.121, -5.491e-10
0.120, -5.542e-10
0.119, -5.597e-10
0.118, -5.657e-10
0.117, -5.719e-10
0.116, -5.770e-10
0.115, -5.801e-10
0.114, -5.851e-10
0.113, -5.884e-10
0.112, -5.921e-10
0.111, -5.980e-10
0.110, -6.024e-10
0.109, -6.090e-10
0.108, -6.144e-10
0.107, -6.210e-10
0.106, -6.263e-10
0.105, -6.306e-10
0.104, -6.331e-10
0.103, -6.370e-10
0.102, -6.460e-10
0.101, -6.489e-10
0.100, -6.536e-10
0.099, -6.582e-10
0.098, -6.633e-10
0.097, -6.685e-10
0.096, -6.726e-10
0.095, -6.774e-10
0.094, -6.825e-10
0.093, -6.873e-10
0.092, -6.927e-10
0.091, -6.962e-10
0.090, -7.020e-10
0.089, -7.052e-10
0.088, -7.101e-10
0.087, -7.138e-10
0.086, -7.186e-10
0.085, -7.245e-10
0.084, -7.300e-10
0.083, -7.356e-10
0.082, -7.400e-10
0.081, -7.456e-10
0.080, -7.506e-10
0.079, -7.569e-10
0.078, -7.616e-10
0.077, -7.659e-10
0.076, -7.701e-10
0.075, -7.753e-10
0.074, -7.811e-10
0.073, -7.868e-10
0.072, -7.940e-10
0.071, -8.008e-10
0.070, -8.063e-10
0.069, -8.115e-10
0.068, -8.173e-10
0.067, -8.236e-10
0.066, -8.278e-10
0.065, -8.322e-10
0.064, -8.356e-10
0.063, -8.408e-10
0.062, -8.468e-10
0.061, -8.528e-10
0.060, -8.583e-10
0.059, -8.633e-10
0.058, -8.697e-10
0.057, -8.748e-10
0.056, -8.805e-10
0.055, -8.860e-10
0.054, -8.908e-10
0.053, -8.971e-10
0.052, -9.032e-10
0.051, -9.079e-10
0.050, -9.146e-10
0.049, -9.203e-10
0.048, -9.259e-10
0.047, -9.312e-10
0.046, -9.365e-10
0.045, -9.427e-10
0.044, -9.495e-10
0.043, -9.553e-10
0.042, -9.607e-10
0.041, -9.667e-10
0.040, -9.734e-10
0.039, -9.800e-10
0.038, -9.851e-10
0.037, -9.926e-10
0.036, -9.981e-10
0.035, -1.003e-9
0.034, -1.009e-9
0.033, -1.015e-9
0.032, -1.020e-9
0.031, -1.027e-9
0.030, -1.032e-9
0.029, -1.037e-9
0.028, -1.042e-9
0.027, -1.048e-9
0.026, -1.055e-9
0.025, -1.061e-9
0.024, -1.068e-9
0.023, -1.074e-9
0.022, -1.080e-9
0.021, -1.086e-9
0.020, -1.091e-9
0.019, -1.098e-9
0.018, -1.105e-9
0.017, -1.110e-9
0.016, -1.116e-9
0.015, -1.123e-9
0.014, -1.130e-9
0.013, -1.137e-9
0.012, -1.142e-9
0.011, -1.149e-9
0.010, -1.156e-9
0.009, -1.161e-9
0.008, -1.168e-9
0.007, -1.174e-9
0.006, -1.180e-9
0.005, -1.185e-9
0.004, -1.192e-9
0.003, -1.198e-9
0.002, -1.204e-9
0.001, -1.210e-9
-0.000, -1.213e-9
-0.001, -1.218e-9
-0.002, -1.227e-9
-0.003, -1.233e-9
-0.004, -1.240e-9
-0.005, -1.247e-9
-0.006, -1.254e-9
-0.007, -1.259e-9
-0.008, -1.266e-9
-0.009, -1.274e-9
-0.010, -1.280e-9
-0.011, -1.287e-9
-0.012, -1.292e-9
-0.013, -1.299e-9
-0.014, -1.307e-9
-0.015, -1.314e-9
-0.016, -1.321e-9
-0.017, -1.328e-9
-0.018, -1.335e-9
-0.019, -1.342e-9
-0.020, -1.348e-9
-0.021, -1.354e-9
-0.022, -1.360e-9
-0.023, -1.366e-9
-0.024, -1.374e-9
-0.025, -1.380e-9
-0.026, -1.388e-9
-0.027, -1.397e-9
-0.028, -1.403e-9
-0.029, -1.406e-9
-0.030, -1.413e-9
-0.031, -1.422e-9
-0.032, -1.430e-9
-0.033, -1.438e-9
-0.034, -1.445e-9
-0.035, -1.453e-9
-0.036, -1.459e-9
-0.037, -1.464e-9
-0.038, -1.470e-9
-0.039, -1.479e-9
-0.040, -1.488e-9
-0.041, -1.496e-9
-0.042, -1.504e-9
-0.043, -1.510e-9
-0.044, -1.517e-9
-0.045, -1.525e-9
-0.046, -1.536e-9
-0.047, -1.546e-9
-0.048, -1.552e-9
-0.049, -1.559e-9
-0.050, -1.567e-9
-0.051, -1.568e-9
-0.052, -1.569e-9
-0.053, -1.569e-9
-0.054, -1.571e-9
-0.055, -1.575e-9
-0.056, -1.580e-9
-0.057, -1.589e-9
-0.058, -1.597e-9
-0.059, -1.605e-9
-0.060, -1.610e-9
-0.061, -1.613e-9
-0.062, -1.618e-9
-0.063, -1.624e-9
-0.064, -1.629e-9
-0.065, -1.635e-9
-0.066, -1.640e-9
-0.067, -1.644e-9
-0.068, -1.650e-9
-0.069, -1.657e-9
-0.070, -1.663e-9
-0.071, -1.669e-9
-0.072, -1.677e-9
-0.073, -1.686e-9
-0.074, -1.692e-9
-0.075, -1.696e-9
-0.076, -1.703e-9
-0.077, -1.708e-9
-0.078, -1.715e-9
-0.079, -1.723e-9
-0.080, -1.726e-9
-0.081, -1.731e-9
-0.082, -1.737e-9
-0.083, -1.744e-9
-0.084, -1.750e-9
-0.085, -1.758e-9
-0.086, -1.765e-9
-0.087, -1.770e-9
-0.088, -1.775e-9
-0.089, -1.779e-9
-0.090, -1.784e-9
-0.091, -1.791e-9
-0.092, -1.798e-9
-0.093, -1.804e-9
-0.094, -1.809e-9
-0.095, -1.816e-9
-0.096, -1.822e-9
-0.097, -1.828e-9
-0.098, -1.833e-9
-0.099, -1.839e-9
-0.100, -1.846e-9
-0.101, -1.853e-9
-0.102, -1.861e-9
-0.103, -1.871e-9
-0.104, -1.874e-9
-0.105, -1.878e-9
-0.106, -1.882e-9
-0.107, -1.889e-9
-0.108, -1.894e-9
-0.109, -1.900e-9
-0.110, -1.907e-9
-0.111, -1.912e-9
-0.112, -1.917e-9
-0.113, -1.922e-9
-0.114, -1.928e-9
-0.115, -1.934e-9
-0.116, -1.939e-9
-0.117, -1.945e-9
-0.118, -1.950e-9
-0.119, -1.956e-9
-0.120, -1.962e-9
-0.121, -1.968e-9
-0.122, -1.973e-9
-0.123, -1.980e-9
-0.124, -1.986e-9
-0.125, -1.995e-9
-0.126, -2.019e-9
-0.127, -2.026e-9
-0.128, -2.012e-9
-0.129, -2.015e-9
-0.130, -2.019e-9
-0.131, -2.024e-9
-0.132, -2.029e-9
-0.133, -2.035e-9
-0.134, -2.041e-9
-0.135, -2.045e-9
-0.136, -2.051e-9
-0.137, -2.058e-9
-0.138, -2.062e-9
-0.139, -2.068e-9
-0.140, -2.074e-9
-0.141, -2.078e-9
-0.142, -2.083e-9
-0.143, -2.089e-9
-0.144, -2.095e-9
-0.145, -2.100e-9
-0.146, -2.105e-9
-0.147, -2.111e-9
-0.148, -2.116e-9
-0.149, -2.122e-9
-0.150, -2.127e-9
-0.151, -2.132e-9
-0.152, -2.139e-9
-0.153, -2.145e-9
-0.154, -2.151e-9
-0.155, -2.158e-9
-0.156, -2.164e-9
-0.157, -2.167e-9
-0.158, -2.173e-9
-0.159, -2.178e-9
-0.160, -2.184e-9
-0.161, -2.190e-9
-0.162, -2.193e-9
-0.163, -2.197e-9
-0.164, -2.203e-9
-0.165, -2.210e-9
-0.166, -2.215e-9
-0.167, -2.219e-9
-0.168, -2.225e-9
-0.169, -2.231e-9
-0.170, -2.238e-9
-0.171, -2.244e-9
-0.172, -2.249e-9
-0.173, -2.254e-9
-0.174, -2.261e-9
-0.175, -2.265e-9
-0.176, -2.266e-9
-0.177, -2.272e-9
-0.178, -2.278e-9
-0.179, -2.284e-9
-0.180, -2.289e-9
-0.181, -2.295e-9
-0.182, -2.302e-9
-0.183, -2.306e-9
-0.184, -2.311e-9
-0.185, -2.317e-9
-0.186, -2.321e-9
-0.187, -2.326e-9
-0.188, -2.332e-9
-0.189, -2.336e-9
-0.190, -2.342e-9
-0.191, -2.348e-9
-0.192, -2.352e-9
-0.193, -2.358e-9
-0.194, -2.363e-9
-0.195, -2.368e-9
-0.196, -2.373e-9
-0.197, -2.378e-9
-0.198, -2.384e-9
-0.199, -2.389e-9
-0.200, -2.393e-9
-0.201, -2.399e-9
-0.202, -2.403e-9
-0.203, -2.411e-9
-0.204, -2.416e-9
-0.205, -2.416e-9
-0.206, -2.423e-9
-0.207, -2.431e-9
-0.208, -2.437e-9
-0.209, -2.442e-9
-0.210, -2.447e-9
-0.211, -2.452e-9
-0.212, -2.458e-9
-0.213, -2.464e-9
-0.214, -2.469e-9
-0.215, -2.473e-9
-0.216, -2.478e-9
-0.217, -2.483e-9
-0.218, -2.488e-9
-0.219, -2.496e-9
-0.220, -2.501e-9
-0.221, -2.505e-9
-0.222, -2.511e-9
-0.223, -2.515e-9
-0.224, -2.521e-9
-0.225, -2.527e-9
-0.226, -2.532e-9
-0.227, -2.537e-9
-0.228, -2.542e-9
-0.229, -2.548e-9
-0.230, -2.553e-9
-0.231, -2.558e-9
-0.232, -2.563e-9
-0.233, -2.568e-9
-0.234, -2.568e-9
-0.235, -2.575e-9
-0.236, -2.583e-9
-0.237, -2.588e-9
-0.238, -2.593e-9
-0.239, -2.597e-9
-0.240, -2.603e-9
-0.241, -2.609e-9
-0.242, -2.614e-9
-0.243, -2.618e-9
-0.244, -2.622e-9
-0.245, -2.628e-9
-0.246, -2.632e-9
-0.247, -2.637e-9
-0.248, -2.642e-9
-0.249, -2.648e-9
-0.250, -2.652e-9
-0.251, -2.658e-9
-0.252, -2.664e-9
-0.253, -2.668e-9
-0.254, -2.673e-9
-0.255, -2.679e-9
-0.256, -2.682e-9
-0.257, -2.689e-9
-0.258, -2.693e-9
-0.259, -2.698e-9
-0.260, -2.703e-9
-0.261, -2.708e-9
-0.262, -2.713e-9
-0.263, -2.719e-9
-0.264, -2.724e-9
-0.265, -2.730e-9
-0.266, -2.734e-9
-0.267, -2.740e-9
-0.268, -2.745e-9
-0.269, -2.749e-9
-0.270, -2.755e-9
-0.271, -2.760e-9
-0.272, -2.765e-9
-0.273, -2.770e-9
-0.274, -2.777e-9
-0.275, -2.781e-9
-0.276, -2.786e-9
-0.277, -2.791e-9
-0.278, -2.797e-9
-0.279, -2.802e-9
-0.280, -2.807e-9
-0.281, -2.813e-9
-0.282, -2.816e-9
-0.283, -2.821e-9
-0.284, -2.828e-9
-0.285, -2.831e-9
-0.286, -2.838e-9
-0.287, -2.843e-9
-0.288, -2.847e-9
-0.289, -2.852e-9
-0.290, -2.856e-9
-0.291, -2.861e-9
-0.292, -2.868e-9
-0.293, -2.873e-9
-0.294, -2.878e-9
-0.295, -2.883e-9
-0.296, -2.888e-9
-0.297, -2.891e-9
-0.298, -2.896e-9
-0.299, -2.903e-9
-0.300, -2.907e-9
-0.301, -2.912e-9
-0.302, -2.917e-9
-0.303, -2.923e-9
-0.304, -2.927e-9
-0.305, -2.932e-9
-0.306, -2.936e-9
-0.307, -2.945e-9
-0.308, -2.951e-9
-0.309, -2.952e-9
-0.310, -2.956e-9
-0.311, -2.962e-9
-0.312, -2.968e-9
-0.313, -2.973e-9
-0.314, -2.977e-9
-0.315, -2.983e-9
-0.316, -2.987e-9
-0.317, -2.991e-9
-0.318, -2.997e-9
-0.319, -3.003e-9
-0.320, -3.008e-9
-0.321, -3.013e-9
-0.322, -3.019e-9
-0.323, -3.025e-9
-0.324, -3.029e-9
-0.325, -3.036e-9
-0.326, -3.040e-9
-0.327, -3.047e-9
-0.328, -3.052e-9
-0.329, -3.057e-9
-0.330, -3.062e-9
-0.331, -3.067e-9
-0.332, -3.072e-9
-0.333, -3.077e-9
-0.334, -3.083e-9
-0.335, -3.088e-9
-0.336, -3.092e-9
-0.337, -3.098e-9
-0.338, -3.103e-9
-0.339, -3.107e-9
-0.340, -3.113e-9
-0.341, -3.118e-9
-0.342, -3.124e-9
-0.343, -3.129e-9
-0.344, -3.134e-9
-0.345, -3.139e-9
-0.346, -3.143e-9
-0.347, -3.148e-9
-0.348, -3.153e-9
-0.349, -3.160e-9
-0.350, -3.168e-9
-0.351, -3.174e-9
-0.352, -3.179e-9
-0.353, -3.183e-9
-0.354, -3.188e-9
-0.355, -3.195e-9
-0.356, -3.200e-9
-0.357, -3.204e-9
-0.358, -3.209e-9
-0.359, -3.213e-9
-0.360, -3.220e-9
-0.361, -3.228e-9
-0.362, -3.235e-9
-0.363, -3.241e-9
-0.364, -3.246e-9
-0.365, -3.250e-9
-0.366, -3.256e-9
-0.367, -3.261e-9
-0.368, -3.265e-9
-0.369, -3.269e-9
-0.370, -3.272e-9
-0.371, -3.276e-9
-0.372, -3.282e-9
-0.373, -3.288e-9
-0.374, -3.293e-9
-0.375, -3.298e-9
-0.376, -3.305e-9
-0.377, -3.311e-9
-0.378, -3.317e-9
-0.379, -3.321e-9
-0.380, -3.326e-9
-0.381, -3.331e-9
-0.382, -3.338e-9
-0.383, -3.343e-9
-0.384, -3.348e-9
-0.385, -3.355e-9
-0.386, -3.360e-9
-0.387, -3.365e-9
-0.388, -3.370e-9
-0.389, -3.375e-9
-0.390, -3.382e-9
-0.391, -3.387e-9
-0.392, -3.393e-9
-0.393, -3.400e-9
-0.394, -3.405e-9
-0.395, -3.411e-9
-0.396, -3.416e-9
-0.397, -3.421e-9
-0.398, -3.427e-9
-0.399, -3.432e-9
-0.400, -3.437e-9
-0.401, -3.442e-9
-0.402, -3.448e-9
-0.403, -3.455e-9
-0.404, -3.461e-9
-0.405, -3.465e-9
-0.406, -3.471e-9
-0.407, -3.476e-9
-0.408, -3.482e-9
-0.409, -3.489e-9
-0.410, -3.494e-9
-0.411, -3.501e-9
-0.412, -3.506e-9
-0.413, -3.511e-9
-0.414, -3.516e-9
-0.415, -3.522e-9
-0.416, -3.527e-9
-0.417, -3.534e-9
-0.418, -3.539e-9
-0.419, -3.544e-9
-0.420, -3.549e-9
-0.421, -3.557e-9
-0.422, -3.564e-9
-0.423, -3.566e-9
-0.424, -3.573e-9
-0.425, -3.579e-9
-0.426, -3.583e-9
-0.427, -3.590e-9
-0.428, -3.597e-9
-0.429, -3.602e-9
-0.430, -3.609e-9
-0.431, -3.615e-9
-0.432, -3.620e-9
-0.433, -3.626e-9
-0.434, -3.632e-9
-0.435, -3.638e-9
-0.436, -3.643e-9
-0.437, -3.649e-9
-0.438, -3.656e-9
-0.439, -3.661e-9
-0.440, -3.667e-9
-0.441, -3.674e-9
-0.442, -3.678e-9
-0.443, -3.686e-9
-0.444, -3.692e-9
-0.445, -3.697e-9
-0.446, -3.703e-9
-0.447, -3.709e-9
-0.448, -3.714e-9
-0.449, -3.720e-9
-0.450, -3.726e-9
-0.451, -3.733e-9
-0.452, -3.740e-9
-0.453, -3.745e-9
-0.454, -3.752e-9
-0.455, -3.758e-9
-0.456, -3.765e-9
-0.457, -3.772e-9
-0.458, -3.777e-9
-0.459, -3.784e-9
-0.460, -3.792e-9
-0.461, -3.796e-9
-0.462, -3.804e-9
-0.463, -3.811e-9
-0.464, -3.815e-9
-0.465, -3.823e-9
-0.466, -3.829e-9
-0.467, -3.837e-9
-0.468, -3.843e-9
-0.469, -3.849e-9
-0.470, -3.855e-9
-0.471, -3.861e-9
-0.472, -3.867e-9
-0.473, -3.876e-9
-0.474, -3.882e-9
-0.475, -3.887e-9
-0.476, -3.894e-9
-0.477, -3.901e-9
-0.478, -3.909e-9
-0.479, -3.914e-9
-0.480, -3.921e-9
-0.481, -3.929e-9
-0.482, -3.937e-9
-0.483, -3.941e-9
-0.484, -3.948e-9
-0.485, -3.955e-9
-0.486, -3.963e-9
-0.487, -3.969e-9
-0.488, -3.977e-9
-0.489, -3.984e-9
-0.490, -3.991e-9
-0.491, -3.998e-9
-0.492, -4.004e-9
-0.493, -4.009e-9
-0.494, -4.018e-9
-0.495, -4.024e-9
-0.496, -4.031e-9
-0.497, -4.039e-9
-0.498, -4.046e-9
-0.499, -4.053e-9
