Mar. 7, 2025   14:42:49
Cyclic Voltammetry
File: cv surface incubated 9.bin
Data Source:  Experiment
Instrument Model:  CHI920C
Ref. Electrode: 
Header: 
Note: 

Init E (V) = -0.5
High E (V) = 0.5
Low E (V) = -0.5
Init P/N = P
Scan Rate (V/s) = 0.05
Segment = 2
Sample Interval (V) = 0.001
Quiet Time (sec) = 10
Sensitivity (A/V) = 1e-8

Results:

Channel 1:
Segment 1:

Segment 2:

Potential/V, Current/A

-0.500, -2.087e-9
-0.499, -1.995e-9
-0.498, -1.942e-9
-0.497, -1.911e-9
-0.496, -1.886e-9
-0.495, -1.864e-9
-0.494, -1.845e-9
-0.493, -1.824e-9
-0.492, -1.806e-9
-0.491, -1.788e-9
-0.490, -1.771e-9
-0.489, -1.755e-9
-0.488, -1.737e-9
-0.487, -1.722e-9
-0.486, -1.709e-9
-0.485, -1.694e-9
-0.484, -1.679e-9
-0.483, -1.666e-9
-0.482, -1.651e-9
-0.481, -1.637e-9
-0.480, -1.623e-9
-0.479, -1.611e-9
-0.478, -1.598e-9
-0.477, -1.586e-9
-0.476, -1.573e-9
-0.475, -1.561e-9
-0.474, -1.548e-9
-0.473, -1.537e-9
-0.472, -1.524e-9
-0.471, -1.513e-9
-0.470, -1.502e-9
-0.469, -1.489e-9
-0.468, -1.477e-9
-0.467, -1.466e-9
-0.466, -1.455e-9
-0.465, -1.443e-9
-0.464, -1.431e-9
-0.463, -1.420e-9
-0.462, -1.412e-9
-0.461, -1.400e-9
-0.460, -1.389e-9
-0.459, -1.377e-9
-0.458, -1.368e-9
-0.457, -1.357e-9
-0.456, -1.346e-9
-0.455, -1.336e-9
-0.454, -1.326e-9
-0.453, -1.315e-9
-0.452, -1.304e-9
-0.451, -1.294e-9
-0.450, -1.284e-9
-0.449, -1.274e-9
-0.448, -1.265e-9
-0.447, -1.254e-9
-0.446, -1.245e-9
-0.445, -1.235e-9
-0.444, -1.224e-9
-0.443, -1.214e-9
-0.442, -1.204e-9
-0.441, -1.194e-9
-0.440, -1.186e-9
-0.439, -1.176e-9
-0.438, -1.167e-9
-0.437, -1.156e-9
-0.436, -1.148e-9
-0.435, -1.140e-9
-0.434, -1.129e-9
-0.433, -1.119e-9
-0.432, -1.110e-9
-0.431, -1.102e-9
-0.430, -1.093e-9
-0.429, -1.082e-9
-0.428, -1.074e-9
-0.427, -1.064e-9
-0.426, -1.055e-9
-0.425, -1.047e-9
-0.424, -1.038e-9
-0.423, -1.029e-9
-0.422, -1.022e-9
-0.421, -1.012e-9
-0.420, -1.003e-9
-0.419, -9.941e-10
-0.418, -9.851e-10
-0.417, -9.758e-10
-0.416, -9.669e-10
-0.415, -9.578e-10
-0.414, -9.500e-10
-0.413, -9.419e-10
-0.412, -9.335e-10
-0.411, -9.246e-10
-0.410, -9.150e-10
-0.409, -9.064e-10
-0.408, -8.982e-10
-0.407, -8.902e-10
-0.406, -8.820e-10
-0.405, -8.738e-10
-0.404, -8.652e-10
-0.403, -8.571e-10
-0.402, -8.476e-10
-0.401, -8.393e-10
-0.400, -8.323e-10
-0.399, -8.240e-10
-0.398, -8.156e-10
-0.397, -8.067e-10
-0.396, -7.998e-10
-0.395, -7.913e-10
-0.394, -7.828e-10
-0.393, -7.764e-10
-0.392, -7.681e-10
-0.391, -7.593e-10
-0.390, -7.515e-10
-0.389, -7.437e-10
-0.388, -7.361e-10
-0.387, -7.282e-10
-0.386, -7.201e-10
-0.385, -7.116e-10
-0.384, -7.037e-10
-0.383, -6.964e-10
-0.382, -6.884e-10
-0.381, -6.819e-10
-0.380, -6.742e-10
-0.379, -6.658e-10
-0.378, -6.580e-10
-0.377, -6.512e-10
-0.376, -6.435e-10
-0.375, -6.355e-10
-0.374, -6.287e-10
-0.373, -6.211e-10
-0.372, -6.130e-10
-0.371, -6.076e-10
-0.370, -5.999e-10
-0.369, -5.909e-10
-0.368, -5.847e-10
-0.367, -5.772e-10
-0.366, -5.698e-10
-0.365, -5.613e-10
-0.364, -5.546e-10
-0.363, -5.473e-10
-0.362, -5.391e-10
-0.361, -5.305e-10
-0.360, -5.253e-10
-0.359, -5.197e-10
-0.358, -5.116e-10
-0.357, -5.021e-10
-0.356, -4.949e-10
-0.355, -4.892e-10
-0.354, -4.810e-10
-0.353, -4.715e-10
-0.352, -4.645e-10
-0.351, -4.595e-10
-0.350, -4.534e-10
-0.349, -4.444e-10
-0.348, -4.363e-10
-0.347, -4.290e-10
-0.346, -4.219e-10
-0.345, -4.146e-10
-0.344, -4.068e-10
-0.343, -4.007e-10
-0.342, -3.960e-10
-0.341, -3.880e-10
-0.340, -3.804e-10
-0.339, -3.741e-10
-0.338, -3.666e-10
-0.337, -3.608e-10
-0.336, -3.536e-10
-0.335, -3.458e-10
-0.334, -3.404e-10
-0.333, -3.347e-10
-0.332, -3.286e-10
-0.331, -3.215e-10
-0.330, -3.145e-10
-0.329, -3.079e-10
-0.328, -3.006e-10
-0.327, -2.949e-10
-0.326, -2.888e-10
-0.325, -2.813e-10
-0.324, -2.745e-10
-0.323, -2.689e-10
-0.322, -2.613e-10
-0.321, -2.552e-10
-0.320, -2.472e-10
-0.319, -2.412e-10
-0.318, -2.363e-10
-0.317, -2.276e-10
-0.316, -2.213e-10
-0.315, -2.145e-10
-0.314, -2.078e-10
-0.313, -2.011e-10
-0.312, -1.951e-10
-0.311, -1.916e-10
-0.310, -1.856e-10
-0.309, -1.786e-10
-0.308, -1.729e-10
-0.307, -1.615e-10
-0.306, -1.542e-10
-0.305, -1.503e-10
-0.304, -1.452e-10
-0.303, -1.393e-10
-0.302, -1.322e-10
-0.301, -1.257e-10
-0.300, -1.201e-10
-0.299, -1.138e-10
-0.298, -1.068e-10
-0.297, -1.008e-10
-0.296, -9.468e-11
-0.295, -8.870e-11
-0.294, -8.322e-11
-0.293, -7.625e-11
-0.292, -6.996e-11
-0.291, -6.367e-11
-0.290, -5.777e-11
-0.289, -5.147e-11
-0.288, -4.533e-11
-0.287, -3.922e-11
-0.286, -3.278e-11
-0.285, -2.661e-11
-0.284, -2.130e-11
-0.283, -1.522e-11
-0.282, -9.120e-12
-0.281, -4.315e-12
-0.280, 2.782e-12
-0.279, 9.391e-12
-0.278, 1.405e-11
-0.277, 1.965e-11
-0.276, 2.551e-11
-0.275, 3.182e-11
-0.274, 3.838e-11
-0.273, 4.337e-11
-0.272, 4.926e-11
-0.271, 5.532e-11
-0.270, 6.070e-11
-0.269, 6.612e-11
-0.268, 7.303e-11
-0.267, 7.831e-11
-0.266, 8.319e-11
-0.265, 8.864e-11
-0.264, 9.543e-11
-0.263, 1.022e-10
-0.262, 1.076e-10
-0.261, 1.132e-10
-0.260, 1.203e-10
-0.259, 1.249e-10
-0.258, 1.304e-10
-0.257, 1.363e-10
-0.256, 1.411e-10
-0.255, 1.461e-10
-0.254, 1.531e-10
-0.253, 1.585e-10
-0.252, 1.638e-10
-0.251, 1.694e-10
-0.250, 1.763e-10
-0.249, 1.810e-10
-0.248, 1.861e-10
-0.247, 1.921e-10
-0.246, 1.977e-10
-0.245, 2.037e-10
-0.244, 2.092e-10
-0.243, 2.146e-10
-0.242, 2.194e-10
-0.241, 2.248e-10
-0.240, 2.304e-10
-0.239, 2.361e-10
-0.238, 2.413e-10
-0.237, 2.476e-10
-0.236, 2.532e-10
-0.235, 2.587e-10
-0.234, 2.644e-10
-0.233, 2.692e-10
-0.232, 2.749e-10
-0.231, 2.814e-10
-0.230, 2.865e-10
-0.229, 2.921e-10
-0.228, 2.981e-10
-0.227, 3.035e-10
-0.226, 3.092e-10
-0.225, 3.132e-10
-0.224, 3.192e-10
-0.223, 3.256e-10
-0.222, 3.307e-10
-0.221, 3.365e-10
-0.220, 3.403e-10
-0.219, 3.459e-10
-0.218, 3.499e-10
-0.217, 3.531e-10
-0.216, 3.585e-10
-0.215, 3.658e-10
-0.214, 3.724e-10
-0.213, 3.784e-10
-0.212, 3.822e-10
-0.211, 3.871e-10
-0.210, 3.923e-10
-0.209, 3.985e-10
-0.208, 4.032e-10
-0.207, 4.083e-10
-0.206, 4.141e-10
-0.205, 4.178e-10
-0.204, 4.210e-10
-0.203, 4.283e-10
-0.202, 4.353e-10
-0.201, 4.400e-10
-0.200, 4.453e-10
-0.199, 4.500e-10
-0.198, 4.557e-10
-0.197, 4.619e-10
-0.196, 4.677e-10
-0.195, 4.728e-10
-0.194, 4.798e-10
-0.193, 4.910e-10
-0.192, 4.933e-10
-0.191, 4.934e-10
-0.190, 4.982e-10
-0.189, 5.035e-10
-0.188, 5.071e-10
-0.187, 5.128e-10
-0.186, 5.191e-10
-0.185, 5.244e-10
-0.184, 5.288e-10
-0.183, 5.330e-10
-0.182, 5.369e-10
-0.181, 5.432e-10
-0.180, 5.495e-10
-0.179, 5.545e-10
-0.178, 5.602e-10
-0.177, 5.647e-10
-0.176, 5.689e-10
-0.175, 5.752e-10
-0.174, 5.798e-10
-0.173, 5.849e-10
-0.172, 5.906e-10
-0.171, 5.959e-10
-0.170, 6.015e-10
-0.169, 6.055e-10
-0.168, 6.121e-10
-0.167, 6.177e-10
-0.166, 6.201e-10
-0.165, 6.256e-10
-0.164, 6.317e-10
-0.163, 6.364e-10
-0.162, 6.420e-10
-0.161, 6.477e-10
-0.160, 6.529e-10
-0.159, 6.581e-10
-0.158, 6.626e-10
-0.157, 6.675e-10
-0.156, 6.734e-10
-0.155, 6.778e-10
-0.154, 6.825e-10
-0.153, 6.867e-10
-0.152, 6.934e-10
-0.151, 6.989e-10
-0.150, 7.024e-10
-0.149, 7.070e-10
-0.148, 7.127e-10
-0.147, 7.174e-10
-0.146, 7.228e-10
-0.145, 7.275e-10
-0.144, 7.327e-10
-0.143, 7.387e-10
-0.142, 7.434e-10
-0.141, 7.493e-10
-0.140, 7.533e-10
-0.139, 7.590e-10
-0.138, 7.652e-10
-0.137, 7.699e-10
-0.136, 7.737e-10
-0.135, 7.795e-10
-0.134, 7.853e-10
-0.133, 7.902e-10
-0.132, 7.955e-10
-0.131, 8.003e-10
-0.130, 8.060e-10
-0.129, 8.107e-10
-0.128, 8.153e-10
-0.127, 8.203e-10
-0.126, 8.256e-10
-0.125, 8.303e-10
-0.124, 8.354e-10
-0.123, 8.404e-10
-0.122, 8.453e-10
-0.121, 8.509e-10
-0.120, 8.557e-10
-0.119, 8.618e-10
-0.118, 8.665e-10
-0.117, 8.713e-10
-0.116, 8.764e-10
-0.115, 8.805e-10
-0.114, 8.860e-10
-0.113, 8.913e-10
-0.112, 8.959e-10
-0.111, 9.013e-10
-0.110, 9.070e-10
-0.109, 9.126e-10
-0.108, 9.177e-10
-0.107, 9.223e-10
-0.106, 9.280e-10
-0.105, 9.323e-10
-0.104, 9.375e-10
-0.103, 9.429e-10
-0.102, 9.525e-10
-0.101, 9.552e-10
-0.100, 9.585e-10
-0.099, 9.623e-10
-0.098, 9.677e-10
-0.097, 9.725e-10
-0.096, 9.782e-10
-0.095, 9.835e-10
-0.094, 9.890e-10
-0.093, 9.936e-10
-0.092, 9.989e-10
-0.091, 1.004e-9
-0.090, 1.010e-9
-0.089, 1.016e-9
-0.088, 1.021e-9
-0.087, 1.026e-9
-0.086, 1.031e-9
-0.085, 1.037e-9
-0.084, 1.040e-9
-0.083, 1.045e-9
-0.082, 1.050e-9
-0.081, 1.055e-9
-0.080, 1.060e-9
-0.079, 1.065e-9
-0.078, 1.071e-9
-0.077, 1.076e-9
-0.076, 1.081e-9
-0.075, 1.085e-9
-0.074, 1.090e-9
-0.073, 1.096e-9
-0.072, 1.102e-9
-0.071, 1.107e-9
-0.070, 1.112e-9
-0.069, 1.117e-9
-0.068, 1.123e-9
-0.067, 1.127e-9
-0.066, 1.132e-9
-0.065, 1.136e-9
-0.064, 1.141e-9
-0.063, 1.146e-9
-0.062, 1.150e-9
-0.061, 1.155e-9
-0.060, 1.162e-9
-0.059, 1.171e-9
-0.058, 1.175e-9
-0.057, 1.181e-9
-0.056, 1.185e-9
-0.055, 1.191e-9
-0.054, 1.195e-9
-0.053, 1.196e-9
-0.052, 1.200e-9
-0.051, 1.207e-9
-0.050, 1.217e-9
-0.049, 1.222e-9
-0.048, 1.228e-9
-0.047, 1.235e-9
-0.046, 1.238e-9
-0.045, 1.242e-9
-0.044, 1.247e-9
-0.043, 1.251e-9
-0.042, 1.258e-9
-0.041, 1.263e-9
-0.040, 1.269e-9
-0.039, 1.274e-9
-0.038, 1.280e-9
-0.037, 1.285e-9
-0.036, 1.290e-9
-0.035, 1.293e-9
-0.034, 1.297e-9
-0.033, 1.300e-9
-0.032, 1.305e-9
-0.031, 1.313e-9
-0.030, 1.318e-9
-0.029, 1.325e-9
-0.028, 1.332e-9
-0.027, 1.336e-9
-0.026, 1.341e-9
-0.025, 1.345e-9
-0.024, 1.351e-9
-0.023, 1.357e-9
-0.022, 1.361e-9
-0.021, 1.367e-9
-0.020, 1.373e-9
-0.019, 1.378e-9
-0.018, 1.384e-9
-0.017, 1.388e-9
-0.016, 1.392e-9
-0.015, 1.396e-9
-0.014, 1.403e-9
-0.013, 1.409e-9
-0.012, 1.414e-9
-0.011, 1.419e-9
-0.010, 1.424e-9
-0.009, 1.428e-9
-0.008, 1.433e-9
-0.007, 1.438e-9
-0.006, 1.443e-9
-0.005, 1.449e-9
-0.004, 1.454e-9
-0.003, 1.459e-9
-0.002, 1.465e-9
-0.001, 1.470e-9
0.000, 1.471e-9
0.001, 1.476e-9
0.002, 1.484e-9
0.003, 1.489e-9
0.004, 1.494e-9
0.005, 1.499e-9
0.006, 1.505e-9
0.007, 1.510e-9
0.008, 1.514e-9
0.009, 1.519e-9
0.010, 1.523e-9
0.011, 1.529e-9
0.012, 1.535e-9
0.013, 1.540e-9
0.014, 1.547e-9
0.015, 1.551e-9
0.016, 1.555e-9
0.017, 1.561e-9
0.018, 1.566e-9
0.019, 1.572e-9
0.020, 1.576e-9
0.021, 1.581e-9
0.022, 1.588e-9
0.023, 1.592e-9
0.024, 1.596e-9
0.025, 1.601e-9
0.026, 1.606e-9
0.027, 1.612e-9
0.028, 1.616e-9
0.029, 1.623e-9
0.030, 1.626e-9
0.031, 1.629e-9
0.032, 1.633e-9
0.033, 1.639e-9
0.034, 1.645e-9
0.035, 1.652e-9
0.036, 1.658e-9
0.037, 1.664e-9
0.038, 1.669e-9
0.039, 1.674e-9
0.040, 1.680e-9
0.041, 1.685e-9
0.042, 1.688e-9
0.043, 1.693e-9
0.044, 1.698e-9
0.045, 1.704e-9
0.046, 1.709e-9
0.047, 1.714e-9
0.048, 1.720e-9
0.049, 1.724e-9
0.050, 1.731e-9
0.051, 1.735e-9
0.052, 1.739e-9
0.053, 1.744e-9
0.054, 1.749e-9
0.055, 1.753e-9
0.056, 1.759e-9
0.057, 1.764e-9
0.058, 1.770e-9
0.059, 1.776e-9
0.060, 1.781e-9
0.061, 1.785e-9
0.062, 1.791e-9
0.063, 1.796e-9
0.064, 1.801e-9
0.065, 1.806e-9
0.066, 1.811e-9
0.067, 1.817e-9
0.068, 1.821e-9
0.069, 1.827e-9
0.070, 1.834e-9
0.071, 1.838e-9
0.072, 1.844e-9
0.073, 1.849e-9
0.074, 1.854e-9
0.075, 1.860e-9
0.076, 1.865e-9
0.077, 1.870e-9
0.078, 1.876e-9
0.079, 1.881e-9
0.080, 1.886e-9
0.081, 1.891e-9
0.082, 1.897e-9
0.083, 1.902e-9
0.084, 1.908e-9
0.085, 1.913e-9
0.086, 1.920e-9
0.087, 1.925e-9
0.088, 1.931e-9
0.089, 1.936e-9
0.090, 1.940e-9
0.091, 1.947e-9
0.092, 1.953e-9
0.093, 1.958e-9
0.094, 1.964e-9
0.095, 1.970e-9
0.096, 1.977e-9
0.097, 1.984e-9
0.098, 1.991e-9
0.099, 2.000e-9
0.100, 2.006e-9
0.101, 2.013e-9
0.102, 2.024e-9
0.103, 2.035e-9
0.104, 2.037e-9
0.105, 2.041e-9
0.106, 2.047e-9
0.107, 2.054e-9
0.108, 2.062e-9
0.109, 2.068e-9
0.110, 2.073e-9
0.111, 2.078e-9
0.112, 2.083e-9
0.113, 2.089e-9
0.114, 2.094e-9
0.115, 2.097e-9
0.116, 2.100e-9
0.117, 2.103e-9
0.118, 2.106e-9
0.119, 2.109e-9
0.120, 2.112e-9
0.121, 2.117e-9
0.122, 2.123e-9
0.123, 2.128e-9
0.124, 2.134e-9
0.125, 2.139e-9
0.126, 2.145e-9
0.127, 2.152e-9
0.128, 2.158e-9
0.129, 2.165e-9
0.130, 2.171e-9
0.131, 2.178e-9
0.132, 2.183e-9
0.133, 2.190e-9
0.134, 2.197e-9
0.135, 2.204e-9
0.136, 2.210e-9
0.137, 2.217e-9
0.138, 2.223e-9
0.139, 2.231e-9
0.140, 2.237e-9
0.141, 2.242e-9
0.142, 2.249e-9
0.143, 2.257e-9
0.144, 2.263e-9
0.145, 2.269e-9
0.146, 2.275e-9
0.147, 2.283e-9
0.148, 2.290e-9
0.149, 2.297e-9
0.150, 2.304e-9
0.151, 2.310e-9
0.152, 2.318e-9
0.153, 2.325e-9
0.154, 2.331e-9
0.155, 2.338e-9
0.156, 2.345e-9
0.157, 2.353e-9
0.158, 2.361e-9
0.159, 2.367e-9
0.160, 2.375e-9
0.161, 2.383e-9
0.162, 2.390e-9
0.163, 2.397e-9
0.164, 2.405e-9
0.165, 2.416e-9
0.166, 2.427e-9
0.167, 2.428e-9
0.168, 2.431e-9
0.169, 2.437e-9
0.170, 2.444e-9
0.171, 2.451e-9
0.172, 2.457e-9
0.173, 2.464e-9
0.174, 2.473e-9
0.175, 2.479e-9
0.176, 2.486e-9
0.177, 2.493e-9
0.178, 2.500e-9
0.179, 2.509e-9
0.180, 2.516e-9
0.181, 2.522e-9
0.182, 2.530e-9
0.183, 2.536e-9
0.184, 2.543e-9
0.185, 2.551e-9
0.186, 2.558e-9
0.187, 2.565e-9
0.188, 2.573e-9
0.189, 2.580e-9
0.190, 2.587e-9
0.191, 2.594e-9
0.192, 2.601e-9
0.193, 2.609e-9
0.194, 2.616e-9
0.195, 2.623e-9
0.196, 2.630e-9
0.197, 2.636e-9
0.198, 2.643e-9
0.199, 2.651e-9
0.200, 2.658e-9
0.201, 2.665e-9
0.202, 2.671e-9
0.203, 2.678e-9
0.204, 2.685e-9
0.205, 2.688e-9
0.206, 2.696e-9
0.207, 2.704e-9
0.208, 2.712e-9
0.209, 2.718e-9
0.210, 2.726e-9
0.211, 2.733e-9
0.212, 2.740e-9
0.213, 2.746e-9
0.214, 2.754e-9
0.215, 2.760e-9
0.216, 2.767e-9
0.217, 2.774e-9
0.218, 2.780e-9
0.219, 2.787e-9
0.220, 2.793e-9
0.221, 2.800e-9
0.222, 2.807e-9
0.223, 2.813e-9
0.224, 2.819e-9
0.225, 2.827e-9
0.226, 2.834e-9
0.227, 2.840e-9
0.228, 2.846e-9
0.229, 2.853e-9
0.230, 2.861e-9
0.231, 2.867e-9
0.232, 2.873e-9
0.233, 2.880e-9
0.234, 2.886e-9
0.235, 2.893e-9
0.236, 2.899e-9
0.237, 2.905e-9
0.238, 2.912e-9
0.239, 2.917e-9
0.240, 2.924e-9
0.241, 2.929e-9
0.242, 2.935e-9
0.243, 2.943e-9
0.244, 2.948e-9
0.245, 2.954e-9
0.246, 2.960e-9
0.247, 2.966e-9
0.248, 2.973e-9
0.249, 2.980e-9
0.250, 2.986e-9
0.251, 2.992e-9
0.252, 3.000e-9
0.253, 3.005e-9
0.254, 3.011e-9
0.255, 3.017e-9
0.256, 3.023e-9
0.257, 3.030e-9
0.258, 3.036e-9
0.259, 3.041e-9
0.260, 3.050e-9
0.261, 3.054e-9
0.262, 3.060e-9
0.263, 3.066e-9
0.264, 3.071e-9
0.265, 3.077e-9
0.266, 3.082e-9
0.267, 3.089e-9
0.268, 3.095e-9
0.269, 3.100e-9
0.270, 3.106e-9
0.271, 3.112e-9
0.272, 3.118e-9
0.273, 3.124e-9
0.274, 3.130e-9
0.275, 3.135e-9
0.276, 3.142e-9
0.277, 3.146e-9
0.278, 3.152e-9
0.279, 3.157e-9
0.280, 3.164e-9
0.281, 3.170e-9
0.282, 3.175e-9
0.283, 3.181e-9
0.284, 3.187e-9
0.285, 3.191e-9
0.286, 3.198e-9
0.287, 3.203e-9
0.288, 3.208e-9
0.289, 3.214e-9
0.290, 3.219e-9
0.291, 3.225e-9
0.292, 3.230e-9
0.293, 3.235e-9
0.294, 3.241e-9
0.295, 3.245e-9
0.296, 3.251e-9
0.297, 3.255e-9
0.298, 3.259e-9
0.299, 3.266e-9
0.300, 3.272e-9
0.301, 3.277e-9
0.302, 3.283e-9
0.303, 3.288e-9
0.304, 3.293e-9
0.305, 3.298e-9
0.306, 3.304e-9
0.307, 3.311e-9
0.308, 3.320e-9
0.309, 3.323e-9
0.310, 3.328e-9
0.311, 3.331e-9
0.312, 3.336e-9
0.313, 3.342e-9
0.314, 3.347e-9
0.315, 3.352e-9
0.316, 3.357e-9
0.317, 3.362e-9
0.318, 3.369e-9
0.319, 3.373e-9
0.320, 3.377e-9
0.321, 3.383e-9
0.322, 3.387e-9
0.323, 3.393e-9
0.324, 3.398e-9
0.325, 3.403e-9
0.326, 3.408e-9
0.327, 3.413e-9
0.328, 3.419e-9
0.329, 3.423e-9
0.330, 3.428e-9
0.331, 3.434e-9
0.332, 3.439e-9
0.333, 3.442e-9
0.334, 3.448e-9
0.335, 3.453e-9
0.336, 3.458e-9
0.337, 3.463e-9
0.338, 3.468e-9
0.339, 3.473e-9
0.340, 3.478e-9
0.341, 3.482e-9
0.342, 3.487e-9
0.343, 3.492e-9
0.344, 3.498e-9
0.345, 3.503e-9
0.346, 3.506e-9
0.347, 3.511e-9
0.348, 3.517e-9
0.349, 3.521e-9
0.350, 3.525e-9
0.351, 3.531e-9
0.352, 3.537e-9
0.353, 3.542e-9
0.354, 3.547e-9
0.355, 3.552e-9
0.356, 3.556e-9
0.357, 3.560e-9
0.358, 3.566e-9
0.359, 3.569e-9
0.360, 3.574e-9
0.361, 3.579e-9
0.362, 3.583e-9
0.363, 3.589e-9
0.364, 3.594e-9
0.365, 3.600e-9
0.366, 3.606e-9
0.367, 3.610e-9
0.368, 3.614e-9
0.369, 3.619e-9
0.370, 3.624e-9
0.371, 3.629e-9
0.372, 3.633e-9
0.373, 3.638e-9
0.374, 3.643e-9
0.375, 3.648e-9
0.376, 3.654e-9
0.377, 3.659e-9
0.378, 3.664e-9
0.379, 3.669e-9
0.380, 3.675e-9
0.381, 3.680e-9
0.382, 3.684e-9
0.383, 3.691e-9
0.384, 3.695e-9
0.385, 3.700e-9
0.386, 3.705e-9
0.387, 3.711e-9
0.388, 3.715e-9
0.389, 3.720e-9
0.390, 3.726e-9
0.391, 3.731e-9
0.392, 3.737e-9
0.393, 3.742e-9
0.394, 3.746e-9
0.395, 3.753e-9
0.396, 3.759e-9
0.397, 3.763e-9
0.398, 3.769e-9
0.399, 3.775e-9
0.400, 3.781e-9
0.401, 3.787e-9
0.402, 3.792e-9
0.403, 3.798e-9
0.404, 3.804e-9
0.405, 3.809e-9
0.406, 3.815e-9
0.407, 3.820e-9
0.408, 3.826e-9
0.409, 3.831e-9
0.410, 3.828e-9
0.411, 3.836e-9
0.412, 3.843e-9
0.413, 3.849e-9
0.414, 3.857e-9
0.415, 3.863e-9
0.416, 3.868e-9
0.417, 3.873e-9
0.418, 3.879e-9
0.419, 3.886e-9
0.420, 3.890e-9
0.421, 3.895e-9
0.422, 3.901e-9
0.423, 3.907e-9
0.424, 3.913e-9
0.425, 3.919e-9
0.426, 3.924e-9
0.427, 3.931e-9
0.428, 3.938e-9
0.429, 3.943e-9
0.430, 3.949e-9
0.431, 3.955e-9
0.432, 3.960e-9
0.433, 3.965e-9
0.434, 3.971e-9
0.435, 3.976e-9
0.436, 3.983e-9
0.437, 3.989e-9
0.438, 3.994e-9
0.439, 3.998e-9
0.440, 4.004e-9
0.441, 4.011e-9
0.442, 4.017e-9
0.443, 4.022e-9
0.444, 4.027e-9
0.445, 4.033e-9
0.446, 4.038e-9
0.447, 4.044e-9
0.448, 4.049e-9
0.449, 4.055e-9
0.450, 4.062e-9
0.451, 4.067e-9
0.452, 4.072e-9
0.453, 4.078e-9
0.454, 4.085e-9
0.455, 4.091e-9
0.456, 4.096e-9
0.457, 4.102e-9
0.458, 4.107e-9
0.459, 4.114e-9
0.460, 4.121e-9
0.461, 4.127e-9
0.462, 4.132e-9
0.463, 4.138e-9
0.464, 4.144e-9
0.465, 4.151e-9
0.466, 4.158e-9
0.467, 4.163e-9
0.468, 4.171e-9
0.469, 4.179e-9
0.470, 4.184e-9
0.471, 4.188e-9
0.472, 4.196e-9
0.473, 4.203e-9
0.474, 4.207e-9
0.475, 4.215e-9
0.476, 4.222e-9
0.477, 4.228e-9
0.478, 4.235e-9
0.479, 4.243e-9
0.480, 4.249e-9
0.481, 4.256e-9
0.482, 4.262e-9
0.483, 4.270e-9
0.484, 4.276e-9
0.485, 4.283e-9
0.486, 4.291e-9
0.487, 4.297e-9
0.488, 4.304e-9
0.489, 4.312e-9
0.490, 4.318e-9
0.491, 4.327e-9
0.492, 4.334e-9
0.493, 4.341e-9
0.494, 4.348e-9
0.495, 4.357e-9
0.496, 4.364e-9
0.497, 4.371e-9
0.498, 4.378e-9
0.499, 4.385e-9
0.500, 4.345e-9
0.499, 4.155e-9
0.498, 4.035e-9
0.497, 3.959e-9
0.496, 3.896e-9
0.495, 3.839e-9
0.494, 3.787e-9
0.493, 3.737e-9
0.492, 3.692e-9
0.491, 3.648e-9
0.490, 3.607e-9
0.489, 3.568e-9
0.488, 3.530e-9
0.487, 3.493e-9
0.486, 3.458e-9
0.485, 3.423e-9
0.484, 3.389e-9
0.483, 3.357e-9
0.482, 3.325e-9
0.481, 3.293e-9
0.480, 3.262e-9
0.479, 3.233e-9
0.478, 3.204e-9
0.477, 3.175e-9
0.476, 3.148e-9
0.475, 3.121e-9
0.474, 3.094e-9
0.473, 3.068e-9
0.472, 3.042e-9
0.471, 3.015e-9
0.470, 2.991e-9
0.469, 2.966e-9
0.468, 2.942e-9
0.467, 2.918e-9
0.466, 2.894e-9
0.465, 2.870e-9
0.464, 2.848e-9
0.463, 2.825e-9
0.462, 2.803e-9
0.461, 2.783e-9
0.460, 2.761e-9
0.459, 2.737e-9
0.458, 2.717e-9
0.457, 2.697e-9
0.456, 2.676e-9
0.455, 2.654e-9
0.454, 2.635e-9
0.453, 2.615e-9
0.452, 2.596e-9
0.451, 2.576e-9
0.450, 2.556e-9
0.449, 2.537e-9
0.448, 2.518e-9
0.447, 2.498e-9
0.446, 2.479e-9
0.445, 2.460e-9
0.444, 2.442e-9
0.443, 2.425e-9
0.442, 2.407e-9
0.441, 2.388e-9
0.440, 2.370e-9
0.439, 2.353e-9
0.438, 2.336e-9
0.437, 2.318e-9
0.436, 2.300e-9
0.435, 2.285e-9
0.434, 2.267e-9
0.433, 2.249e-9
0.432, 2.232e-9
0.431, 2.216e-9
0.430, 2.199e-9
0.429, 2.182e-9
0.428, 2.165e-9
0.427, 2.150e-9
0.426, 2.133e-9
0.425, 2.117e-9
0.424, 2.100e-9
0.423, 2.085e-9
0.422, 2.070e-9
0.421, 2.054e-9
0.420, 2.039e-9
0.419, 2.024e-9
0.418, 2.009e-9
0.417, 1.994e-9
0.416, 1.977e-9
0.415, 1.961e-9
0.414, 1.947e-9
0.413, 1.932e-9
0.412, 1.917e-9
0.411, 1.902e-9
0.410, 1.889e-9
0.409, 1.879e-9
0.408, 1.862e-9
0.407, 1.845e-9
0.406, 1.831e-9
0.405, 1.816e-9
0.404, 1.801e-9
0.403, 1.786e-9
0.402, 1.772e-9
0.401, 1.758e-9
0.400, 1.744e-9
0.399, 1.729e-9
0.398, 1.715e-9
0.397, 1.702e-9
0.396, 1.688e-9
0.395, 1.673e-9
0.394, 1.660e-9
0.393, 1.646e-9
0.392, 1.632e-9
0.391, 1.618e-9
0.390, 1.605e-9
0.389, 1.591e-9
0.388, 1.577e-9
0.387, 1.564e-9
0.386, 1.551e-9
0.385, 1.537e-9
0.384, 1.525e-9
0.383, 1.511e-9
0.382, 1.497e-9
0.381, 1.484e-9
0.380, 1.472e-9
0.379, 1.459e-9
0.378, 1.445e-9
0.377, 1.432e-9
0.376, 1.419e-9
0.375, 1.407e-9
0.374, 1.394e-9
0.373, 1.381e-9
0.372, 1.368e-9
0.371, 1.356e-9
0.370, 1.343e-9
0.369, 1.330e-9
0.368, 1.318e-9
0.367, 1.305e-9
0.366, 1.293e-9
0.365, 1.280e-9
0.364, 1.267e-9
0.363, 1.256e-9
0.362, 1.243e-9
0.361, 1.232e-9
0.360, 1.219e-9
0.359, 1.206e-9
0.358, 1.195e-9
0.357, 1.182e-9
0.356, 1.170e-9
0.355, 1.158e-9
0.354, 1.146e-9
0.353, 1.135e-9
0.352, 1.122e-9
0.351, 1.110e-9
0.350, 1.098e-9
0.349, 1.086e-9
0.348, 1.075e-9
0.347, 1.063e-9
0.346, 1.051e-9
0.345, 1.040e-9
0.344, 1.029e-9
0.343, 1.019e-9
0.342, 1.007e-9
0.341, 9.948e-10
0.340, 9.818e-10
0.339, 9.697e-10
0.338, 9.586e-10
0.337, 9.469e-10
0.336, 9.361e-10
0.335, 9.256e-10
0.334, 9.142e-10
0.333, 9.028e-10
0.332, 8.915e-10
0.331, 8.806e-10
0.330, 8.696e-10
0.329, 8.591e-10
0.328, 8.489e-10
0.327, 8.374e-10
0.326, 8.265e-10
0.325, 8.157e-10
0.324, 8.047e-10
0.323, 7.933e-10
0.322, 7.823e-10
0.321, 7.723e-10
0.320, 7.623e-10
0.319, 7.505e-10
0.318, 7.402e-10
0.317, 7.297e-10
0.316, 7.185e-10
0.315, 7.079e-10
0.314, 6.970e-10
0.313, 6.861e-10
0.312, 6.753e-10
0.311, 6.657e-10
0.310, 6.564e-10
0.309, 6.450e-10
0.308, 6.346e-10
0.307, 6.204e-10
0.306, 6.121e-10
0.305, 6.025e-10
0.304, 5.927e-10
0.303, 5.835e-10
0.302, 5.742e-10
0.301, 5.638e-10
0.300, 5.536e-10
0.299, 5.442e-10
0.298, 5.346e-10
0.297, 5.259e-10
0.296, 5.161e-10
0.295, 5.067e-10
0.294, 4.971e-10
0.293, 4.874e-10
0.292, 4.774e-10
0.291, 4.689e-10
0.290, 4.582e-10
0.289, 4.493e-10
0.288, 4.403e-10
0.287, 4.312e-10
0.286, 4.223e-10
0.285, 4.128e-10
0.284, 4.034e-10
0.283, 3.945e-10
0.282, 3.852e-10
0.281, 3.771e-10
0.280, 3.684e-10
0.279, 3.600e-10
0.278, 3.516e-10
0.277, 3.421e-10
0.276, 3.328e-10
0.275, 3.242e-10
0.274, 3.160e-10
0.273, 3.080e-10
0.272, 3.000e-10
0.271, 2.908e-10
0.270, 2.830e-10
0.269, 2.749e-10
0.268, 2.663e-10
0.267, 2.578e-10
0.266, 2.493e-10
0.265, 2.414e-10
0.264, 2.338e-10
0.263, 2.249e-10
0.262, 2.170e-10
0.261, 2.087e-10
0.260, 2.019e-10
0.259, 1.945e-10
0.258, 1.863e-10
0.257, 1.794e-10
0.256, 1.710e-10
0.255, 1.641e-10
0.254, 1.571e-10
0.253, 1.490e-10
0.252, 1.417e-10
0.251, 1.344e-10
0.250, 1.264e-10
0.249, 1.192e-10
0.248, 1.123e-10
0.247, 1.046e-10
0.246, 9.845e-11
0.245, 9.131e-11
0.244, 8.394e-11
0.243, 7.860e-11
0.242, 7.190e-11
0.241, 6.496e-11
0.240, 5.839e-11
0.239, 5.092e-11
0.238, 4.459e-11
0.237, 3.804e-11
0.236, 3.248e-11
0.235, 2.508e-11
0.234, 1.817e-11
0.233, 1.246e-11
0.232, 6.184e-12
0.231, -5.847e-15
0.230, -5.767e-12
0.229, -1.228e-11
0.228, -1.791e-11
0.227, -2.298e-11
0.226, -2.984e-11
0.225, -3.553e-11
0.224, -4.178e-11
0.223, -4.712e-11
0.222, -5.248e-11
0.221, -5.853e-11
0.220, -6.458e-11
0.219, -7.077e-11
0.218, -7.555e-11
0.217, -8.111e-11
0.216, -8.685e-11
0.215, -9.169e-11
0.214, -9.669e-11
0.213, -1.034e-10
0.212, -1.088e-10
0.211, -1.149e-10
0.210, -1.206e-10
0.209, -1.253e-10
0.208, -1.304e-10
0.207, -1.353e-10
0.206, -1.401e-10
0.205, -1.431e-10
0.204, -1.470e-10
0.203, -1.542e-10
0.202, -1.593e-10
0.201, -1.639e-10
0.200, -1.691e-10
0.199, -1.752e-10
0.198, -1.799e-10
0.197, -1.846e-10
0.196, -1.886e-10
0.195, -1.934e-10
0.194, -1.989e-10
0.193, -2.037e-10
0.192, -2.079e-10
0.191, -2.129e-10
0.190, -2.172e-10
0.189, -2.225e-10
0.188, -2.267e-10
0.187, -2.313e-10
0.186, -2.356e-10
0.185, -2.402e-10
0.184, -2.447e-10
0.183, -2.492e-10
0.182, -2.529e-10
0.181, -2.585e-10
0.180, -2.637e-10
0.179, -2.667e-10
0.178, -2.710e-10
0.177, -2.752e-10
0.176, -2.800e-10
0.175, -2.840e-10
0.174, -2.889e-10
0.173, -2.934e-10
0.172, -2.983e-10
0.171, -3.027e-10
0.170, -3.060e-10
0.169, -3.106e-10
0.168, -3.150e-10
0.167, -3.189e-10
0.166, -3.215e-10
0.165, -3.254e-10
0.164, -3.300e-10
0.163, -3.341e-10
0.162, -3.386e-10
0.161, -3.437e-10
0.160, -3.476e-10
0.159, -3.520e-10
0.158, -3.569e-10
0.157, -3.616e-10
0.156, -3.651e-10
0.155, -3.694e-10
0.154, -3.738e-10
0.153, -3.782e-10
0.152, -3.838e-10
0.151, -3.876e-10
0.150, -3.918e-10
0.149, -3.960e-10
0.148, -4.012e-10
0.147, -4.053e-10
0.146, -4.085e-10
0.145, -4.127e-10
0.144, -4.171e-10
0.143, -4.218e-10
0.142, -4.268e-10
0.141, -4.302e-10
0.140, -4.338e-10
0.139, -4.390e-10
0.138, -4.437e-10
0.137, -4.472e-10
0.136, -4.515e-10
0.135, -4.571e-10
0.134, -4.615e-10
0.133, -4.654e-10
0.132, -4.701e-10
0.131, -4.748e-10
0.130, -4.790e-10
0.129, -4.830e-10
0.128, -4.869e-10
0.127, -4.920e-10
0.126, -4.968e-10
0.125, -5.019e-10
0.124, -5.056e-10
0.123, -5.104e-10
0.122, -5.154e-10
0.121, -5.197e-10
0.120, -5.240e-10
0.119, -5.283e-10
0.118, -5.321e-10
0.117, -5.369e-10
0.116, -5.420e-10
0.115, -5.466e-10
0.114, -5.516e-10
0.113, -5.563e-10
0.112, -5.598e-10
0.111, -5.645e-10
0.110, -5.689e-10
0.109, -5.736e-10
0.108, -5.793e-10
0.107, -5.838e-10
0.106, -5.882e-10
0.105, -5.927e-10
0.104, -5.972e-10
0.103, -6.040e-10
0.102, -6.123e-10
0.101, -6.143e-10
0.100, -6.193e-10
0.099, -6.226e-10
0.098, -6.281e-10
0.097, -6.320e-10
0.096, -6.380e-10
0.095, -6.439e-10
0.094, -6.481e-10
0.093, -6.517e-10
0.092, -6.563e-10
0.091, -6.616e-10
0.090, -6.668e-10
0.089, -6.719e-10
0.088, -6.770e-10
0.087, -6.828e-10
0.086, -6.882e-10
0.085, -6.938e-10
0.084, -6.984e-10
0.083, -7.042e-10
0.082, -7.100e-10
0.081, -7.150e-10
0.080, -7.190e-10
0.079, -7.252e-10
0.078, -7.311e-10
0.077, -7.370e-10
0.076, -7.419e-10
0.075, -7.474e-10
0.074, -7.532e-10
0.073, -7.578e-10
0.072, -7.628e-10
0.071, -7.676e-10
0.070, -7.727e-10
0.069, -7.796e-10
0.068, -7.851e-10
0.067, -7.895e-10
0.066, -7.953e-10
0.065, -8.020e-10
0.064, -8.067e-10
0.063, -8.113e-10
0.062, -8.169e-10
0.061, -8.217e-10
0.060, -8.282e-10
0.059, -8.337e-10
0.058, -8.397e-10
0.057, -8.457e-10
0.056, -8.511e-10
0.055, -8.568e-10
0.054, -8.626e-10
0.053, -8.681e-10
0.052, -8.743e-10
0.051, -8.784e-10
0.050, -8.857e-10
0.049, -8.920e-10
0.048, -8.982e-10
0.047, -9.036e-10
0.046, -9.092e-10
0.045, -9.164e-10
0.044, -9.217e-10
0.043, -9.273e-10
0.042, -9.334e-10
0.041, -9.387e-10
0.040, -9.451e-10
0.039, -9.508e-10
0.038, -9.554e-10
0.037, -9.625e-10
0.036, -9.687e-10
0.035, -9.747e-10
0.034, -9.808e-10
0.033, -9.875e-10
0.032, -9.941e-10
0.031, -1.000e-9
0.030, -1.007e-9
0.029, -1.014e-9
0.028, -1.020e-9
0.027, -1.026e-9
0.026, -1.033e-9
0.025, -1.039e-9
0.024, -1.046e-9
0.023, -1.052e-9
0.022, -1.057e-9
0.021, -1.064e-9
0.020, -1.071e-9
0.019, -1.078e-9
0.018, -1.084e-9
0.017, -1.090e-9
0.016, -1.097e-9
0.015, -1.103e-9
0.014, -1.110e-9
0.013, -1.116e-9
0.012, -1.123e-9
0.011, -1.129e-9
0.010, -1.136e-9
0.009, -1.142e-9
0.008, -1.149e-9
0.007, -1.157e-9
0.006, -1.163e-9
0.005, -1.170e-9
0.004, -1.178e-9
0.003, -1.183e-9
0.002, -1.190e-9
0.001, -1.197e-9
-0.000, -1.198e-9
-0.001, -1.205e-9
-0.002, -1.213e-9
-0.003, -1.220e-9
-0.004, -1.228e-9
-0.005, -1.235e-9
-0.006, -1.241e-9
-0.007, -1.249e-9
-0.008, -1.256e-9
-0.009, -1.263e-9
-0.010, -1.269e-9
-0.011, -1.277e-9
-0.012, -1.284e-9
-0.013, -1.291e-9
-0.014, -1.298e-9
-0.015, -1.306e-9
-0.016, -1.313e-9
-0.017, -1.320e-9
-0.018, -1.328e-9
-0.019, -1.336e-9
-0.020, -1.344e-9
-0.021, -1.351e-9
-0.022, -1.357e-9
-0.023, -1.364e-9
-0.024, -1.372e-9
-0.025, -1.380e-9
-0.026, -1.386e-9
-0.027, -1.395e-9
-0.028, -1.404e-9
-0.029, -1.412e-9
-0.030, -1.418e-9
-0.031, -1.426e-9
-0.032, -1.436e-9
-0.033, -1.447e-9
-0.034, -1.452e-9
-0.035, -1.460e-9
-0.036, -1.471e-9
-0.037, -1.479e-9
-0.038, -1.488e-9
-0.039, -1.496e-9
-0.040, -1.504e-9
-0.041, -1.514e-9
-0.042, -1.524e-9
-0.043, -1.533e-9
-0.044, -1.543e-9
-0.045, -1.551e-9
-0.046, -1.564e-9
-0.047, -1.574e-9
-0.048, -1.583e-9
-0.049, -1.591e-9
-0.050, -1.592e-9
-0.051, -1.599e-9
-0.052, -1.598e-9
-0.053, -1.598e-9
-0.054, -1.605e-9
-0.055, -1.611e-9
-0.056, -1.617e-9
-0.057, -1.623e-9
-0.058, -1.624e-9
-0.059, -1.626e-9
-0.060, -1.628e-9
-0.061, -1.636e-9
-0.062, -1.640e-9
-0.063, -1.645e-9
-0.064, -1.646e-9
-0.065, -1.649e-9
-0.066, -1.655e-9
-0.067, -1.661e-9
-0.068, -1.669e-9
-0.069, -1.680e-9
-0.070, -1.690e-9
-0.071, -1.700e-9
-0.072, -1.702e-9
-0.073, -1.702e-9
-0.074, -1.707e-9
-0.075, -1.718e-9
-0.076, -1.732e-9
-0.077, -1.729e-9
-0.078, -1.732e-9
-0.079, -1.739e-9
-0.080, -1.744e-9
-0.081, -1.750e-9
-0.082, -1.758e-9
-0.083, -1.765e-9
-0.084, -1.771e-9
-0.085, -1.778e-9
-0.086, -1.784e-9
-0.087, -1.790e-9
-0.088, -1.797e-9
-0.089, -1.804e-9
-0.090, -1.810e-9
-0.091, -1.818e-9
-0.092, -1.825e-9
-0.093, -1.830e-9
-0.094, -1.837e-9
-0.095, -1.844e-9
-0.096, -1.851e-9
-0.097, -1.857e-9
-0.098, -1.862e-9
-0.099, -1.868e-9
-0.100, -1.875e-9
-0.101, -1.882e-9
-0.102, -1.889e-9
-0.103, -1.900e-9
-0.104, -1.904e-9
-0.105, -1.909e-9
-0.106, -1.914e-9
-0.107, -1.921e-9
-0.108, -1.927e-9
-0.109, -1.933e-9
-0.110, -1.940e-9
-0.111, -1.946e-9
-0.112, -1.953e-9
-0.113, -1.959e-9
-0.114, -1.965e-9
-0.115, -1.971e-9
-0.116, -1.977e-9
-0.117, -1.983e-9
-0.118, -1.989e-9
-0.119, -1.995e-9
-0.120, -2.001e-9
-0.121, -2.007e-9
-0.122, -2.013e-9
-0.123, -2.020e-9
-0.124, -2.027e-9
-0.125, -2.031e-9
-0.126, -2.038e-9
-0.127, -2.044e-9
-0.128, -2.050e-9
-0.129, -2.056e-9
-0.130, -2.063e-9
-0.131, -2.068e-9
-0.132, -2.075e-9
-0.133, -2.081e-9
-0.134, -2.087e-9
-0.135, -2.092e-9
-0.136, -2.098e-9
-0.137, -2.105e-9
-0.138, -2.110e-9
-0.139, -2.116e-9
-0.140, -2.121e-9
-0.141, -2.127e-9
-0.142, -2.134e-9
-0.143, -2.140e-9
-0.144, -2.146e-9
-0.145, -2.151e-9
-0.146, -2.157e-9
-0.147, -2.163e-9
-0.148, -2.169e-9
-0.149, -2.175e-9
-0.150, -2.181e-9
-0.151, -2.187e-9
-0.152, -2.193e-9
-0.153, -2.198e-9
-0.154, -2.204e-9
-0.155, -2.211e-9
-0.156, -2.215e-9
-0.157, -2.220e-9
-0.158, -2.226e-9
-0.159, -2.233e-9
-0.160, -2.239e-9
-0.161, -2.244e-9
-0.162, -2.249e-9
-0.163, -2.256e-9
-0.164, -2.262e-9
-0.165, -2.267e-9
-0.166, -2.273e-9
-0.167, -2.278e-9
-0.168, -2.284e-9
-0.169, -2.291e-9
-0.170, -2.296e-9
-0.171, -2.302e-9
-0.172, -2.307e-9
-0.173, -2.314e-9
-0.174, -2.318e-9
-0.175, -2.323e-9
-0.176, -2.330e-9
-0.177, -2.336e-9
-0.178, -2.341e-9
-0.179, -2.346e-9
-0.180, -2.352e-9
-0.181, -2.357e-9
-0.182, -2.363e-9
-0.183, -2.368e-9
-0.184, -2.373e-9
-0.185, -2.379e-9
-0.186, -2.386e-9
-0.187, -2.390e-9
-0.188, -2.395e-9
-0.189, -2.400e-9
-0.190, -2.406e-9
-0.191, -2.412e-9
-0.192, -2.416e-9
-0.193, -2.422e-9
-0.194, -2.428e-9
-0.195, -2.433e-9
-0.196, -2.438e-9
-0.197, -2.443e-9
-0.198, -2.450e-9
-0.199, -2.454e-9
-0.200, -2.459e-9
-0.201, -2.466e-9
-0.202, -2.470e-9
-0.203, -2.476e-9
-0.204, -2.482e-9
-0.205, -2.483e-9
-0.206, -2.491e-9
-0.207, -2.497e-9
-0.208, -2.502e-9
-0.209, -2.508e-9
-0.210, -2.513e-9
-0.211, -2.519e-9
-0.212, -2.525e-9
-0.213, -2.531e-9
-0.214, -2.536e-9
-0.215, -2.540e-9
-0.216, -2.545e-9
-0.217, -2.551e-9
-0.218, -2.556e-9
-0.219, -2.561e-9
-0.220, -2.567e-9
-0.221, -2.571e-9
-0.222, -2.577e-9
-0.223, -2.582e-9
-0.224, -2.588e-9
-0.225, -2.594e-9
-0.226, -2.598e-9
-0.227, -2.604e-9
-0.228, -2.610e-9
-0.229, -2.615e-9
-0.230, -2.620e-9
-0.231, -2.625e-9
-0.232, -2.631e-9
-0.233, -2.636e-9
-0.234, -2.640e-9
-0.235, -2.645e-9
-0.236, -2.651e-9
-0.237, -2.656e-9
-0.238, -2.662e-9
-0.239, -2.666e-9
-0.240, -2.671e-9
-0.241, -2.677e-9
-0.242, -2.681e-9
-0.243, -2.686e-9
-0.244, -2.692e-9
-0.245, -2.697e-9
-0.246, -2.703e-9
-0.247, -2.707e-9
-0.248, -2.712e-9
-0.249, -2.719e-9
-0.250, -2.722e-9
-0.251, -2.727e-9
-0.252, -2.734e-9
-0.253, -2.738e-9
-0.254, -2.744e-9
-0.255, -2.749e-9
-0.256, -2.753e-9
-0.257, -2.759e-9
-0.258, -2.764e-9
-0.259, -2.769e-9
-0.260, -2.773e-9
-0.261, -2.779e-9
-0.262, -2.786e-9
-0.263, -2.790e-9
-0.264, -2.794e-9
-0.265, -2.800e-9
-0.266, -2.806e-9
-0.267, -2.811e-9
-0.268, -2.817e-9
-0.269, -2.820e-9
-0.270, -2.826e-9
-0.271, -2.831e-9
-0.272, -2.837e-9
-0.273, -2.842e-9
-0.274, -2.847e-9
-0.275, -2.853e-9
-0.276, -2.858e-9
-0.277, -2.863e-9
-0.278, -2.868e-9
-0.279, -2.873e-9
-0.280, -2.879e-9
-0.281, -2.883e-9
-0.282, -2.887e-9
-0.283, -2.894e-9
-0.284, -2.899e-9
-0.285, -2.903e-9
-0.286, -2.910e-9
-0.287, -2.915e-9
-0.288, -2.919e-9
-0.289, -2.925e-9
-0.290, -2.930e-9
-0.291, -2.934e-9
-0.292, -2.939e-9
-0.293, -2.945e-9
-0.294, -2.951e-9
-0.295, -2.955e-9
-0.296, -2.961e-9
-0.297, -2.966e-9
-0.298, -2.970e-9
-0.299, -2.975e-9
-0.300, -2.981e-9
-0.301, -2.986e-9
-0.302, -2.992e-9
-0.303, -2.996e-9
-0.304, -3.000e-9
-0.305, -3.005e-9
-0.306, -3.011e-9
-0.307, -3.020e-9
-0.308, -3.026e-9
-0.309, -3.028e-9
-0.310, -3.033e-9
-0.311, -3.038e-9
-0.312, -3.043e-9
-0.313, -3.048e-9
-0.314, -3.054e-9
-0.315, -3.058e-9
-0.316, -3.063e-9
-0.317, -3.067e-9
-0.318, -3.073e-9
-0.319, -3.080e-9
-0.320, -3.085e-9
-0.321, -3.089e-9
-0.322, -3.095e-9
-0.323, -3.100e-9
-0.324, -3.105e-9
-0.325, -3.110e-9
-0.326, -3.115e-9
-0.327, -3.121e-9
-0.328, -3.127e-9
-0.329, -3.131e-9
-0.330, -3.135e-9
-0.331, -3.142e-9
-0.332, -3.147e-9
-0.333, -3.151e-9
-0.334, -3.157e-9
-0.335, -3.162e-9
-0.336, -3.167e-9
-0.337, -3.172e-9
-0.338, -3.178e-9
-0.339, -3.183e-9
-0.340, -3.189e-9
-0.341, -3.193e-9
-0.342, -3.199e-9
-0.343, -3.204e-9
-0.344, -3.209e-9
-0.345, -3.214e-9
-0.346, -3.218e-9
-0.347, -3.223e-9
-0.348, -3.230e-9
-0.349, -3.235e-9
-0.350, -3.240e-9
-0.351, -3.246e-9
-0.352, -3.251e-9
-0.353, -3.256e-9
-0.354, -3.261e-9
-0.355, -3.267e-9
-0.356, -3.271e-9
-0.357, -3.277e-9
-0.358, -3.282e-9
-0.359, -3.288e-9
-0.360, -3.293e-9
-0.361, -3.299e-9
-0.362, -3.304e-9
-0.363, -3.309e-9
-0.364, -3.316e-9
-0.365, -3.321e-9
-0.366, -3.326e-9
-0.367, -3.332e-9
-0.368, -3.336e-9
-0.369, -3.342e-9
-0.370, -3.348e-9
-0.371, -3.353e-9
-0.372, -3.357e-9
-0.373, -3.362e-9
-0.374, -3.367e-9
-0.375, -3.373e-9
-0.376, -3.379e-9
-0.377, -3.385e-9
-0.378, -3.389e-9
-0.379, -3.395e-9
-0.380, -3.402e-9
-0.381, -3.406e-9
-0.382, -3.411e-9
-0.383, -3.417e-9
-0.384, -3.421e-9
-0.385, -3.428e-9
-0.386, -3.434e-9
-0.387, -3.438e-9
-0.388, -3.443e-9
-0.389, -3.449e-9
-0.390, -3.455e-9
-0.391, -3.460e-9
-0.392, -3.465e-9
-0.393, -3.470e-9
-0.394, -3.475e-9
-0.395, -3.481e-9
-0.396, -3.487e-9
-0.397, -3.492e-9
-0.398, -3.498e-9
-0.399, -3.504e-9
-0.400, -3.509e-9
-0.401, -3.515e-9
-0.402, -3.520e-9
-0.403, -3.526e-9
-0.404, -3.532e-9
-0.405, -3.537e-9
-0.406, -3.543e-9
-0.407, -3.548e-9
-0.408, -3.553e-9
-0.409, -3.559e-9
-0.410, -3.565e-9
-0.411, -3.571e-9
-0.412, -3.577e-9
-0.413, -3.582e-9
-0.414, -3.589e-9
-0.415, -3.594e-9
-0.416, -3.600e-9
-0.417, -3.606e-9
-0.418, -3.612e-9
-0.419, -3.617e-9
-0.420, -3.623e-9
-0.421, -3.628e-9
-0.422, -3.634e-9
-0.423, -3.640e-9
-0.424, -3.647e-9
-0.425, -3.652e-9
-0.426, -3.657e-9
-0.427, -3.664e-9
-0.428, -3.670e-9
-0.429, -3.675e-9
-0.430, -3.681e-9
-0.431, -3.688e-9
-0.432, -3.693e-9
-0.433, -3.699e-9
-0.434, -3.705e-9
-0.435, -3.711e-9
-0.436, -3.715e-9
-0.437, -3.723e-9
-0.438, -3.727e-9
-0.439, -3.733e-9
-0.440, -3.740e-9
-0.441, -3.747e-9
-0.442, -3.753e-9
-0.443, -3.759e-9
-0.444, -3.764e-9
-0.445, -3.769e-9
-0.446, -3.776e-9
-0.447, -3.781e-9
-0.448, -3.787e-9
-0.449, -3.793e-9
-0.450, -3.799e-9
-0.451, -3.807e-9
-0.452, -3.813e-9
-0.453, -3.820e-9
-0.454, -3.827e-9
-0.455, -3.832e-9
-0.456, -3.839e-9
-0.457, -3.844e-9
-0.458, -3.850e-9
-0.459, -3.858e-9
-0.460, -3.864e-9
-0.461, -3.868e-9
-0.462, -3.876e-9
-0.463, -3.883e-9
-0.464, -3.890e-9
-0.465, -3.898e-9
-0.466, -3.904e-9
-0.467, -3.910e-9
-0.468, -3.916e-9
-0.469, -3.922e-9
-0.470, -3.929e-9
-0.471, -3.936e-9
-0.472, -3.942e-9
-0.473, -3.948e-9
-0.474, -3.952e-9
-0.475, -3.959e-9
-0.476, -3.964e-9
-0.477, -3.969e-9
-0.478, -3.975e-9
-0.479, -3.984e-9
-0.480, -3.992e-9
-0.481, -3.997e-9
-0.482, -4.001e-9
-0.483, -4.006e-9
-0.484, -4.010e-9
-0.485, -4.020e-9
-0.486, -4.028e-9
-0.487, -4.037e-9
-0.488, -4.044e-9
-0.489, -4.053e-9
-0.490, -4.058e-9
-0.491, -4.065e-9
-0.492, -4.075e-9
-0.493, -4.085e-9
-0.494, -4.092e-9
-0.495, -4.097e-9
-0.496, -4.103e-9
-0.497, -4.112e-9
-0.498, -4.123e-9
-0.499, -4.128e-9
