Mar. 7, 2025   14:36:01
Cyclic Voltammetry
File: cv surface incubated 3 .bin
Data Source:  Experiment
Instrument Model:  CHI920C
Ref. Electrode: 
Header: 
Note: 

Init E (V) = -0.5
High E (V) = 0.5
Low E (V) = -0.5
Init P/N = P
Scan Rate (V/s) = 0.05
Segment = 2
Sample Interval (V) = 0.001
Quiet Time (sec) = 10
Sensitivity (A/V) = 1e-8

Results:

Channel 1:
Segment 1:

Segment 2:

Potential/V, Current/A

-0.500, -1.869e-9
-0.499, -1.779e-9
-0.498, -1.726e-9
-0.497, -1.693e-9
-0.496, -1.669e-9
-0.495, -1.645e-9
-0.494, -1.624e-9
-0.493, -1.604e-9
-0.492, -1.585e-9
-0.491, -1.568e-9
-0.490, -1.550e-9
-0.489, -1.534e-9
-0.488, -1.518e-9
-0.487, -1.503e-9
-0.486, -1.487e-9
-0.485, -1.471e-9
-0.484, -1.457e-9
-0.483, -1.443e-9
-0.482, -1.429e-9
-0.481, -1.414e-9
-0.480, -1.399e-9
-0.479, -1.387e-9
-0.478, -1.375e-9
-0.477, -1.361e-9
-0.476, -1.348e-9
-0.475, -1.335e-9
-0.474, -1.323e-9
-0.473, -1.311e-9
-0.472, -1.299e-9
-0.471, -1.286e-9
-0.470, -1.276e-9
-0.469, -1.264e-9
-0.468, -1.251e-9
-0.467, -1.240e-9
-0.466, -1.229e-9
-0.465, -1.217e-9
-0.464, -1.206e-9
-0.463, -1.194e-9
-0.462, -1.183e-9
-0.461, -1.172e-9
-0.460, -1.162e-9
-0.459, -1.150e-9
-0.458, -1.139e-9
-0.457, -1.131e-9
-0.456, -1.120e-9
-0.455, -1.108e-9
-0.454, -1.097e-9
-0.453, -1.087e-9
-0.452, -1.077e-9
-0.451, -1.066e-9
-0.450, -1.056e-9
-0.449, -1.046e-9
-0.448, -1.037e-9
-0.447, -1.026e-9
-0.446, -1.016e-9
-0.445, -1.006e-9
-0.444, -9.958e-10
-0.443, -9.866e-10
-0.442, -9.771e-10
-0.441, -9.666e-10
-0.440, -9.569e-10
-0.439, -9.477e-10
-0.438, -9.390e-10
-0.437, -9.285e-10
-0.436, -9.197e-10
-0.435, -9.103e-10
-0.434, -9.013e-10
-0.433, -8.913e-10
-0.432, -8.816e-10
-0.431, -8.725e-10
-0.430, -8.632e-10
-0.429, -8.536e-10
-0.428, -8.443e-10
-0.427, -8.359e-10
-0.426, -8.272e-10
-0.425, -8.176e-10
-0.424, -8.085e-10
-0.423, -7.995e-10
-0.422, -7.926e-10
-0.421, -7.826e-10
-0.420, -7.729e-10
-0.419, -7.654e-10
-0.418, -7.557e-10
-0.417, -7.476e-10
-0.416, -7.390e-10
-0.415, -7.300e-10
-0.414, -7.219e-10
-0.413, -7.135e-10
-0.412, -7.033e-10
-0.411, -6.945e-10
-0.410, -6.853e-10
-0.409, -6.767e-10
-0.408, -6.683e-10
-0.407, -6.600e-10
-0.406, -6.522e-10
-0.405, -6.442e-10
-0.404, -6.370e-10
-0.403, -6.285e-10
-0.402, -6.196e-10
-0.401, -6.120e-10
-0.400, -6.044e-10
-0.399, -5.950e-10
-0.398, -5.861e-10
-0.397, -5.788e-10
-0.396, -5.705e-10
-0.395, -5.613e-10
-0.394, -5.533e-10
-0.393, -5.470e-10
-0.392, -5.386e-10
-0.391, -5.304e-10
-0.390, -5.216e-10
-0.389, -5.136e-10
-0.388, -5.065e-10
-0.387, -4.983e-10
-0.386, -4.914e-10
-0.385, -4.832e-10
-0.384, -4.767e-10
-0.383, -4.690e-10
-0.382, -4.616e-10
-0.381, -4.526e-10
-0.380, -4.443e-10
-0.379, -4.372e-10
-0.378, -4.290e-10
-0.377, -4.209e-10
-0.376, -4.142e-10
-0.375, -4.067e-10
-0.374, -3.999e-10
-0.373, -3.920e-10
-0.372, -3.834e-10
-0.371, -3.775e-10
-0.370, -3.700e-10
-0.369, -3.617e-10
-0.368, -3.543e-10
-0.367, -3.473e-10
-0.366, -3.398e-10
-0.365, -3.319e-10
-0.364, -3.247e-10
-0.363, -3.175e-10
-0.362, -3.097e-10
-0.361, -3.031e-10
-0.360, -2.954e-10
-0.359, -2.869e-10
-0.358, -2.819e-10
-0.357, -2.741e-10
-0.356, -2.669e-10
-0.355, -2.605e-10
-0.354, -2.530e-10
-0.353, -2.464e-10
-0.352, -2.391e-10
-0.351, -2.310e-10
-0.350, -2.236e-10
-0.349, -2.167e-10
-0.348, -2.109e-10
-0.347, -2.039e-10
-0.346, -1.962e-10
-0.345, -1.900e-10
-0.344, -1.825e-10
-0.343, -1.753e-10
-0.342, -1.694e-10
-0.341, -1.620e-10
-0.340, -1.543e-10
-0.339, -1.478e-10
-0.338, -1.406e-10
-0.337, -1.345e-10
-0.336, -1.282e-10
-0.335, -1.208e-10
-0.334, -1.152e-10
-0.333, -1.077e-10
-0.332, -1.011e-10
-0.331, -9.427e-11
-0.330, -8.753e-11
-0.329, -8.176e-11
-0.328, -7.352e-11
-0.327, -6.599e-11
-0.326, -6.146e-11
-0.325, -5.482e-11
-0.324, -4.823e-11
-0.323, -4.178e-11
-0.322, -3.443e-11
-0.321, -2.818e-11
-0.320, -2.175e-11
-0.319, -1.617e-11
-0.318, -9.637e-12
-0.317, -3.515e-12
-0.316, 2.304e-12
-0.315, 9.596e-12
-0.314, 1.685e-11
-0.313, 2.305e-11
-0.312, 2.942e-11
-0.311, 3.499e-11
-0.310, 4.023e-11
-0.309, 4.773e-11
-0.308, 5.424e-11
-0.307, 6.469e-11
-0.306, 7.048e-11
-0.305, 7.475e-11
-0.304, 8.030e-11
-0.303, 8.706e-11
-0.302, 9.353e-11
-0.301, 9.938e-11
-0.300, 1.058e-10
-0.299, 1.112e-10
-0.298, 1.167e-10
-0.297, 1.222e-10
-0.296, 1.287e-10
-0.295, 1.354e-10
-0.294, 1.406e-10
-0.293, 1.477e-10
-0.292, 1.535e-10
-0.291, 1.597e-10
-0.290, 1.654e-10
-0.289, 1.708e-10
-0.288, 1.770e-10
-0.287, 1.838e-10
-0.286, 1.897e-10
-0.285, 1.957e-10
-0.284, 2.003e-10
-0.283, 2.068e-10
-0.282, 2.138e-10
-0.281, 2.182e-10
-0.280, 2.235e-10
-0.279, 2.294e-10
-0.278, 2.357e-10
-0.277, 2.424e-10
-0.276, 2.477e-10
-0.275, 2.535e-10
-0.274, 2.597e-10
-0.273, 2.657e-10
-0.272, 2.706e-10
-0.271, 2.762e-10
-0.270, 2.828e-10
-0.269, 2.878e-10
-0.268, 2.928e-10
-0.267, 2.986e-10
-0.266, 3.052e-10
-0.265, 3.110e-10
-0.264, 3.163e-10
-0.263, 3.211e-10
-0.262, 3.267e-10
-0.261, 3.338e-10
-0.260, 3.394e-10
-0.259, 3.440e-10
-0.258, 3.491e-10
-0.257, 3.555e-10
-0.256, 3.607e-10
-0.255, 3.672e-10
-0.254, 3.727e-10
-0.253, 3.764e-10
-0.252, 3.827e-10
-0.251, 3.891e-10
-0.250, 3.940e-10
-0.249, 3.999e-10
-0.248, 4.050e-10
-0.247, 4.102e-10
-0.246, 4.152e-10
-0.245, 4.213e-10
-0.244, 4.271e-10
-0.243, 4.309e-10
-0.242, 4.365e-10
-0.241, 4.427e-10
-0.240, 4.476e-10
-0.239, 4.532e-10
-0.238, 4.591e-10
-0.237, 4.644e-10
-0.236, 4.702e-10
-0.235, 4.756e-10
-0.234, 4.797e-10
-0.233, 4.854e-10
-0.232, 4.906e-10
-0.231, 4.959e-10
-0.230, 5.013e-10
-0.229, 5.072e-10
-0.228, 5.125e-10
-0.227, 5.172e-10
-0.226, 5.224e-10
-0.225, 5.265e-10
-0.224, 5.322e-10
-0.223, 5.384e-10
-0.222, 5.439e-10
-0.221, 5.479e-10
-0.220, 5.534e-10
-0.219, 5.596e-10
-0.218, 5.645e-10
-0.217, 5.682e-10
-0.216, 5.731e-10
-0.215, 5.793e-10
-0.214, 5.833e-10
-0.213, 5.894e-10
-0.212, 5.951e-10
-0.211, 6.000e-10
-0.210, 6.051e-10
-0.209, 6.097e-10
-0.208, 6.138e-10
-0.207, 6.194e-10
-0.206, 6.244e-10
-0.205, 6.282e-10
-0.204, 6.311e-10
-0.203, 6.381e-10
-0.202, 6.434e-10
-0.201, 6.487e-10
-0.200, 6.533e-10
-0.199, 6.590e-10
-0.198, 6.641e-10
-0.197, 6.694e-10
-0.196, 6.749e-10
-0.195, 6.785e-10
-0.194, 6.839e-10
-0.193, 6.898e-10
-0.192, 6.946e-10
-0.191, 6.991e-10
-0.190, 7.044e-10
-0.189, 7.104e-10
-0.188, 7.153e-10
-0.187, 7.205e-10
-0.186, 7.257e-10
-0.185, 7.308e-10
-0.184, 7.372e-10
-0.183, 7.416e-10
-0.182, 7.458e-10
-0.181, 7.514e-10
-0.180, 7.572e-10
-0.179, 7.616e-10
-0.178, 7.667e-10
-0.177, 7.698e-10
-0.176, 7.735e-10
-0.175, 7.782e-10
-0.174, 7.830e-10
-0.173, 7.864e-10
-0.172, 7.898e-10
-0.171, 7.953e-10
-0.170, 8.016e-10
-0.169, 8.056e-10
-0.168, 8.098e-10
-0.167, 8.137e-10
-0.166, 8.177e-10
-0.165, 8.230e-10
-0.164, 8.275e-10
-0.163, 8.311e-10
-0.162, 8.369e-10
-0.161, 8.421e-10
-0.160, 8.472e-10
-0.159, 8.527e-10
-0.158, 8.577e-10
-0.157, 8.628e-10
-0.156, 8.665e-10
-0.155, 8.721e-10
-0.154, 8.756e-10
-0.153, 8.794e-10
-0.152, 8.848e-10
-0.151, 8.907e-10
-0.150, 8.942e-10
-0.149, 8.985e-10
-0.148, 9.040e-10
-0.147, 9.090e-10
-0.146, 9.142e-10
-0.145, 9.175e-10
-0.144, 9.207e-10
-0.143, 9.247e-10
-0.142, 9.288e-10
-0.141, 9.330e-10
-0.140, 9.373e-10
-0.139, 9.426e-10
-0.138, 9.475e-10
-0.137, 9.514e-10
-0.136, 9.564e-10
-0.135, 9.618e-10
-0.134, 9.663e-10
-0.133, 9.720e-10
-0.132, 9.769e-10
-0.131, 9.804e-10
-0.130, 9.861e-10
-0.129, 9.905e-10
-0.128, 9.945e-10
-0.127, 9.983e-10
-0.126, 1.003e-9
-0.125, 1.007e-9
-0.124, 1.012e-9
-0.123, 1.017e-9
-0.122, 1.021e-9
-0.121, 1.026e-9
-0.120, 1.030e-9
-0.119, 1.035e-9
-0.118, 1.037e-9
-0.117, 1.044e-9
-0.116, 1.050e-9
-0.115, 1.052e-9
-0.114, 1.058e-9
-0.113, 1.062e-9
-0.112, 1.067e-9
-0.111, 1.071e-9
-0.110, 1.076e-9
-0.109, 1.081e-9
-0.108, 1.085e-9
-0.107, 1.089e-9
-0.106, 1.094e-9
-0.105, 1.097e-9
-0.104, 1.102e-9
-0.103, 1.106e-9
-0.102, 1.116e-9
-0.101, 1.118e-9
-0.100, 1.122e-9
-0.099, 1.126e-9
-0.098, 1.131e-9
-0.097, 1.134e-9
-0.096, 1.139e-9
-0.095, 1.144e-9
-0.094, 1.149e-9
-0.093, 1.153e-9
-0.092, 1.157e-9
-0.091, 1.162e-9
-0.090, 1.166e-9
-0.089, 1.171e-9
-0.088, 1.176e-9
-0.087, 1.180e-9
-0.086, 1.185e-9
-0.085, 1.192e-9
-0.084, 1.196e-9
-0.083, 1.201e-9
-0.082, 1.206e-9
-0.081, 1.212e-9
-0.080, 1.216e-9
-0.079, 1.221e-9
-0.078, 1.226e-9
-0.077, 1.233e-9
-0.076, 1.240e-9
-0.075, 1.245e-9
-0.074, 1.249e-9
-0.073, 1.252e-9
-0.072, 1.254e-9
-0.071, 1.257e-9
-0.070, 1.258e-9
-0.069, 1.259e-9
-0.068, 1.261e-9
-0.067, 1.263e-9
-0.066, 1.266e-9
-0.065, 1.273e-9
-0.064, 1.279e-9
-0.063, 1.281e-9
-0.062, 1.284e-9
-0.061, 1.288e-9
-0.060, 1.292e-9
-0.059, 1.299e-9
-0.058, 1.305e-9
-0.057, 1.309e-9
-0.056, 1.313e-9
-0.055, 1.318e-9
-0.054, 1.322e-9
-0.053, 1.327e-9
-0.052, 1.334e-9
-0.051, 1.341e-9
-0.050, 1.347e-9
-0.049, 1.353e-9
-0.048, 1.357e-9
-0.047, 1.363e-9
-0.046, 1.367e-9
-0.045, 1.371e-9
-0.044, 1.375e-9
-0.043, 1.379e-9
-0.042, 1.382e-9
-0.041, 1.386e-9
-0.040, 1.390e-9
-0.039, 1.395e-9
-0.038, 1.399e-9
-0.037, 1.404e-9
-0.036, 1.408e-9
-0.035, 1.412e-9
-0.034, 1.418e-9
-0.033, 1.422e-9
-0.032, 1.427e-9
-0.031, 1.432e-9
-0.030, 1.436e-9
-0.029, 1.441e-9
-0.028, 1.446e-9
-0.027, 1.451e-9
-0.026, 1.455e-9
-0.025, 1.459e-9
-0.024, 1.465e-9
-0.023, 1.469e-9
-0.022, 1.472e-9
-0.021, 1.478e-9
-0.020, 1.484e-9
-0.019, 1.488e-9
-0.018, 1.493e-9
-0.017, 1.497e-9
-0.016, 1.501e-9
-0.015, 1.506e-9
-0.014, 1.511e-9
-0.013, 1.516e-9
-0.012, 1.520e-9
-0.011, 1.525e-9
-0.010, 1.529e-9
-0.009, 1.533e-9
-0.008, 1.537e-9
-0.007, 1.542e-9
-0.006, 1.547e-9
-0.005, 1.553e-9
-0.004, 1.557e-9
-0.003, 1.560e-9
-0.002, 1.566e-9
-0.001, 1.571e-9
0.000, 1.572e-9
0.001, 1.576e-9
0.002, 1.583e-9
0.003, 1.588e-9
0.004, 1.593e-9
0.005, 1.598e-9
0.006, 1.604e-9
0.007, 1.608e-9
0.008, 1.612e-9
0.009, 1.618e-9
0.010, 1.622e-9
0.011, 1.627e-9
0.012, 1.631e-9
0.013, 1.636e-9
0.014, 1.641e-9
0.015, 1.645e-9
0.016, 1.650e-9
0.017, 1.656e-9
0.018, 1.661e-9
0.019, 1.666e-9
0.020, 1.670e-9
0.021, 1.675e-9
0.022, 1.679e-9
0.023, 1.684e-9
0.024, 1.689e-9
0.025, 1.695e-9
0.026, 1.699e-9
0.027, 1.704e-9
0.028, 1.709e-9
0.029, 1.713e-9
0.030, 1.718e-9
0.031, 1.723e-9
0.032, 1.729e-9
0.033, 1.733e-9
0.034, 1.738e-9
0.035, 1.744e-9
0.036, 1.748e-9
0.037, 1.754e-9
0.038, 1.759e-9
0.039, 1.763e-9
0.040, 1.768e-9
0.041, 1.773e-9
0.042, 1.777e-9
0.043, 1.783e-9
0.044, 1.788e-9
0.045, 1.794e-9
0.046, 1.798e-9
0.047, 1.802e-9
0.048, 1.808e-9
0.049, 1.813e-9
0.050, 1.818e-9
0.051, 1.823e-9
0.052, 1.827e-9
0.053, 1.833e-9
0.054, 1.838e-9
0.055, 1.843e-9
0.056, 1.848e-9
0.057, 1.853e-9
0.058, 1.859e-9
0.059, 1.864e-9
0.060, 1.870e-9
0.061, 1.875e-9
0.062, 1.880e-9
0.063, 1.885e-9
0.064, 1.890e-9
0.065, 1.896e-9
0.066, 1.900e-9
0.067, 1.905e-9
0.068, 1.910e-9
0.069, 1.917e-9
0.070, 1.921e-9
0.071, 1.927e-9
0.072, 1.933e-9
0.073, 1.938e-9
0.074, 1.942e-9
0.075, 1.949e-9
0.076, 1.955e-9
0.077, 1.959e-9
0.078, 1.964e-9
0.079, 1.970e-9
0.080, 1.975e-9
0.081, 1.981e-9
0.082, 1.987e-9
0.083, 1.993e-9
0.084, 1.999e-9
0.085, 2.004e-9
0.086, 2.009e-9
0.087, 2.014e-9
0.088, 2.020e-9
0.089, 2.027e-9
0.090, 2.031e-9
0.091, 2.037e-9
0.092, 2.043e-9
0.093, 2.049e-9
0.094, 2.056e-9
0.095, 2.061e-9
0.096, 2.067e-9
0.097, 2.074e-9
0.098, 2.080e-9
0.099, 2.088e-9
0.100, 2.095e-9
0.101, 2.101e-9
0.102, 2.110e-9
0.103, 2.120e-9
0.104, 2.124e-9
0.105, 2.128e-9
0.106, 2.129e-9
0.107, 2.134e-9
0.108, 2.141e-9
0.109, 2.146e-9
0.110, 2.152e-9
0.111, 2.158e-9
0.112, 2.165e-9
0.113, 2.172e-9
0.114, 2.177e-9
0.115, 2.181e-9
0.116, 2.187e-9
0.117, 2.194e-9
0.118, 2.200e-9
0.119, 2.204e-9
0.120, 2.209e-9
0.121, 2.216e-9
0.122, 2.223e-9
0.123, 2.228e-9
0.124, 2.234e-9
0.125, 2.240e-9
0.126, 2.247e-9
0.127, 2.253e-9
0.128, 2.260e-9
0.129, 2.268e-9
0.130, 2.274e-9
0.131, 2.281e-9
0.132, 2.287e-9
0.133, 2.293e-9
0.134, 2.302e-9
0.135, 2.309e-9
0.136, 2.315e-9
0.137, 2.322e-9
0.138, 2.328e-9
0.139, 2.335e-9
0.140, 2.343e-9
0.141, 2.348e-9
0.142, 2.356e-9
0.143, 2.364e-9
0.144, 2.372e-9
0.145, 2.377e-9
0.146, 2.385e-9
0.147, 2.393e-9
0.148, 2.400e-9
0.149, 2.407e-9
0.150, 2.414e-9
0.151, 2.422e-9
0.152, 2.430e-9
0.153, 2.437e-9
0.154, 2.444e-9
0.155, 2.451e-9
0.156, 2.459e-9
0.157, 2.465e-9
0.158, 2.474e-9
0.159, 2.481e-9
0.160, 2.489e-9
0.161, 2.497e-9
0.162, 2.504e-9
0.163, 2.510e-9
0.164, 2.517e-9
0.165, 2.526e-9
0.166, 2.533e-9
0.167, 2.539e-9
0.168, 2.547e-9
0.169, 2.556e-9
0.170, 2.564e-9
0.171, 2.571e-9
0.172, 2.577e-9
0.173, 2.585e-9
0.174, 2.593e-9
0.175, 2.601e-9
0.176, 2.608e-9
0.177, 2.615e-9
0.178, 2.622e-9
0.179, 2.631e-9
0.180, 2.637e-9
0.181, 2.645e-9
0.182, 2.654e-9
0.183, 2.660e-9
0.184, 2.668e-9
0.185, 2.676e-9
0.186, 2.684e-9
0.187, 2.691e-9
0.188, 2.699e-9
0.189, 2.706e-9
0.190, 2.714e-9
0.191, 2.722e-9
0.192, 2.729e-9
0.193, 2.735e-9
0.194, 2.743e-9
0.195, 2.751e-9
0.196, 2.757e-9
0.197, 2.765e-9
0.198, 2.774e-9
0.199, 2.781e-9
0.200, 2.788e-9
0.201, 2.796e-9
0.202, 2.801e-9
0.203, 2.808e-9
0.204, 2.817e-9
0.205, 2.821e-9
0.206, 2.828e-9
0.207, 2.836e-9
0.208, 2.844e-9
0.209, 2.852e-9
0.210, 2.859e-9
0.211, 2.866e-9
0.212, 2.874e-9
0.213, 2.881e-9
0.214, 2.888e-9
0.215, 2.895e-9
0.216, 2.902e-9
0.217, 2.910e-9
0.218, 2.916e-9
0.219, 2.923e-9
0.220, 2.930e-9
0.221, 2.936e-9
0.222, 2.943e-9
0.223, 2.950e-9
0.224, 2.958e-9
0.225, 2.965e-9
0.226, 2.972e-9
0.227, 2.979e-9
0.228, 2.986e-9
0.229, 2.993e-9
0.230, 2.999e-9
0.231, 3.005e-9
0.232, 3.012e-9
0.233, 3.019e-9
0.234, 3.026e-9
0.235, 3.033e-9
0.236, 3.039e-9
0.237, 3.046e-9
0.238, 3.053e-9
0.239, 3.060e-9
0.240, 3.065e-9
0.241, 3.071e-9
0.242, 3.078e-9
0.243, 3.085e-9
0.244, 3.090e-9
0.245, 3.097e-9
0.246, 3.104e-9
0.247, 3.110e-9
0.248, 3.117e-9
0.249, 3.123e-9
0.250, 3.131e-9
0.251, 3.137e-9
0.252, 3.143e-9
0.253, 3.150e-9
0.254, 3.157e-9
0.255, 3.163e-9
0.256, 3.170e-9
0.257, 3.178e-9
0.258, 3.183e-9
0.259, 3.188e-9
0.260, 3.195e-9
0.261, 3.201e-9
0.262, 3.208e-9
0.263, 3.215e-9
0.264, 3.223e-9
0.265, 3.229e-9
0.266, 3.233e-9
0.267, 3.239e-9
0.268, 3.247e-9
0.269, 3.253e-9
0.270, 3.260e-9
0.271, 3.267e-9
0.272, 3.273e-9
0.273, 3.280e-9
0.274, 3.287e-9
0.275, 3.293e-9
0.276, 3.298e-9
0.277, 3.304e-9
0.278, 3.311e-9
0.279, 3.316e-9
0.280, 3.323e-9
0.281, 3.328e-9
0.282, 3.333e-9
0.283, 3.339e-9
0.284, 3.346e-9
0.285, 3.350e-9
0.286, 3.357e-9
0.287, 3.363e-9
0.288, 3.370e-9
0.289, 3.376e-9
0.290, 3.382e-9
0.291, 3.389e-9
0.292, 3.395e-9
0.293, 3.401e-9
0.294, 3.408e-9
0.295, 3.414e-9
0.296, 3.420e-9
0.297, 3.426e-9
0.298, 3.430e-9
0.299, 3.437e-9
0.300, 3.442e-9
0.301, 3.447e-9
0.302, 3.453e-9
0.303, 3.459e-9
0.304, 3.464e-9
0.305, 3.469e-9
0.306, 3.475e-9
0.307, 3.484e-9
0.308, 3.494e-9
0.309, 3.497e-9
0.310, 3.502e-9
0.311, 3.507e-9
0.312, 3.514e-9
0.313, 3.520e-9
0.314, 3.525e-9
0.315, 3.531e-9
0.316, 3.537e-9
0.317, 3.543e-9
0.318, 3.548e-9
0.319, 3.554e-9
0.320, 3.559e-9
0.321, 3.564e-9
0.322, 3.569e-9
0.323, 3.576e-9
0.324, 3.581e-9
0.325, 3.585e-9
0.326, 3.592e-9
0.327, 3.598e-9
0.328, 3.604e-9
0.329, 3.610e-9
0.330, 3.614e-9
0.331, 3.619e-9
0.332, 3.625e-9
0.333, 3.631e-9
0.334, 3.637e-9
0.335, 3.642e-9
0.336, 3.647e-9
0.337, 3.653e-9
0.338, 3.659e-9
0.339, 3.665e-9
0.340, 3.671e-9
0.341, 3.677e-9
0.342, 3.684e-9
0.343, 3.689e-9
0.344, 3.696e-9
0.345, 3.702e-9
0.346, 3.706e-9
0.347, 3.712e-9
0.348, 3.716e-9
0.349, 3.723e-9
0.350, 3.729e-9
0.351, 3.734e-9
0.352, 3.739e-9
0.353, 3.743e-9
0.354, 3.749e-9
0.355, 3.756e-9
0.356, 3.762e-9
0.357, 3.768e-9
0.358, 3.772e-9
0.359, 3.773e-9
0.360, 3.778e-9
0.361, 3.787e-9
0.362, 3.796e-9
0.363, 3.805e-9
0.364, 3.810e-9
0.365, 3.814e-9
0.366, 3.820e-9
0.367, 3.826e-9
0.368, 3.831e-9
0.369, 3.836e-9
0.370, 3.842e-9
0.371, 3.845e-9
0.372, 3.849e-9
0.373, 3.854e-9
0.374, 3.859e-9
0.375, 3.862e-9
0.376, 3.870e-9
0.377, 3.878e-9
0.378, 3.885e-9
0.379, 3.891e-9
0.380, 3.896e-9
0.381, 3.902e-9
0.382, 3.908e-9
0.383, 3.914e-9
0.384, 3.921e-9
0.385, 3.928e-9
0.386, 3.934e-9
0.387, 3.939e-9
0.388, 3.945e-9
0.389, 3.953e-9
0.390, 3.959e-9
0.391, 3.964e-9
0.392, 3.969e-9
0.393, 3.977e-9
0.394, 3.982e-9
0.395, 3.988e-9
0.396, 3.994e-9
0.397, 4.000e-9
0.398, 4.007e-9
0.399, 4.013e-9
0.400, 4.020e-9
0.401, 4.027e-9
0.402, 4.034e-9
0.403, 4.041e-9
0.404, 4.047e-9
0.405, 4.053e-9
0.406, 4.060e-9
0.407, 4.066e-9
0.408, 4.072e-9
0.409, 4.077e-9
0.410, 4.075e-9
0.411, 4.084e-9
0.412, 4.092e-9
0.413, 4.099e-9
0.414, 4.106e-9
0.415, 4.112e-9
0.416, 4.120e-9
0.417, 4.126e-9
0.418, 4.132e-9
0.419, 4.138e-9
0.420, 4.144e-9
0.421, 4.151e-9
0.422, 4.157e-9
0.423, 4.162e-9
0.424, 4.168e-9
0.425, 4.175e-9
0.426, 4.180e-9
0.427, 4.187e-9
0.428, 4.193e-9
0.429, 4.199e-9
0.430, 4.206e-9
0.431, 4.211e-9
0.432, 4.217e-9
0.433, 4.223e-9
0.434, 4.230e-9
0.435, 4.236e-9
0.436, 4.244e-9
0.437, 4.249e-9
0.438, 4.255e-9
0.439, 4.261e-9
0.440, 4.266e-9
0.441, 4.273e-9
0.442, 4.278e-9
0.443, 4.285e-9
0.444, 4.291e-9
0.445, 4.296e-9
0.446, 4.303e-9
0.447, 4.308e-9
0.448, 4.314e-9
0.449, 4.321e-9
0.450, 4.327e-9
0.451, 4.333e-9
0.452, 4.340e-9
0.453, 4.348e-9
0.454, 4.354e-9
0.455, 4.360e-9
0.456, 4.368e-9
0.457, 4.374e-9
0.458, 4.378e-9
0.459, 4.386e-9
0.460, 4.392e-9
0.461, 4.398e-9
0.462, 4.405e-9
0.463, 4.412e-9
0.464, 4.419e-9
0.465, 4.425e-9
0.466, 4.432e-9
0.467, 4.439e-9
0.468, 4.444e-9
0.469, 4.450e-9
0.470, 4.458e-9
0.471, 4.463e-9
0.472, 4.470e-9
0.473, 4.477e-9
0.474, 4.483e-9
0.475, 4.490e-9
0.476, 4.498e-9
0.477, 4.504e-9
0.478, 4.510e-9
0.479, 4.518e-9
0.480, 4.526e-9
0.481, 4.533e-9
0.482, 4.540e-9
0.483, 4.548e-9
0.484, 4.556e-9
0.485, 4.564e-9
0.486, 4.570e-9
0.487, 4.578e-9
0.488, 4.586e-9
0.489, 4.592e-9
0.490, 4.599e-9
0.491, 4.608e-9
0.492, 4.615e-9
0.493, 4.625e-9
0.494, 4.633e-9
0.495, 4.639e-9
0.496, 4.646e-9
0.497, 4.654e-9
0.498, 4.662e-9
0.499, 4.669e-9
0.500, 4.630e-9
0.499, 4.445e-9
0.498, 4.322e-9
0.497, 4.241e-9
0.496, 4.173e-9
0.495, 4.110e-9
0.494, 4.053e-9
0.493, 3.999e-9
0.492, 3.949e-9
0.491, 3.900e-9
0.490, 3.855e-9
0.489, 3.811e-9
0.488, 3.768e-9
0.487, 3.727e-9
0.486, 3.688e-9
0.485, 3.650e-9
0.484, 3.613e-9
0.483, 3.577e-9
0.482, 3.540e-9
0.481, 3.505e-9
0.480, 3.472e-9
0.479, 3.439e-9
0.478, 3.406e-9
0.477, 3.375e-9
0.476, 3.344e-9
0.475, 3.314e-9
0.474, 3.285e-9
0.473, 3.257e-9
0.472, 3.228e-9
0.471, 3.199e-9
0.470, 3.173e-9
0.469, 3.145e-9
0.468, 3.118e-9
0.467, 3.090e-9
0.466, 3.064e-9
0.465, 3.039e-9
0.464, 3.014e-9
0.463, 2.989e-9
0.462, 2.966e-9
0.461, 2.942e-9
0.460, 2.918e-9
0.459, 2.893e-9
0.458, 2.870e-9
0.457, 2.848e-9
0.456, 2.824e-9
0.455, 2.801e-9
0.454, 2.780e-9
0.453, 2.758e-9
0.452, 2.735e-9
0.451, 2.714e-9
0.450, 2.693e-9
0.449, 2.672e-9
0.448, 2.651e-9
0.447, 2.630e-9
0.446, 2.609e-9
0.445, 2.588e-9
0.444, 2.568e-9
0.443, 2.549e-9
0.442, 2.527e-9
0.441, 2.507e-9
0.440, 2.488e-9
0.439, 2.469e-9
0.438, 2.450e-9
0.437, 2.431e-9
0.436, 2.413e-9
0.435, 2.394e-9
0.434, 2.375e-9
0.433, 2.356e-9
0.432, 2.339e-9
0.431, 2.321e-9
0.430, 2.303e-9
0.429, 2.284e-9
0.428, 2.266e-9
0.427, 2.248e-9
0.426, 2.231e-9
0.425, 2.215e-9
0.424, 2.197e-9
0.423, 2.179e-9
0.422, 2.162e-9
0.421, 2.144e-9
0.420, 2.127e-9
0.419, 2.111e-9
0.418, 2.094e-9
0.417, 2.076e-9
0.416, 2.060e-9
0.415, 2.044e-9
0.414, 2.027e-9
0.413, 2.010e-9
0.412, 1.994e-9
0.411, 1.979e-9
0.410, 1.964e-9
0.409, 1.953e-9
0.408, 1.933e-9
0.407, 1.916e-9
0.406, 1.901e-9
0.405, 1.884e-9
0.404, 1.868e-9
0.403, 1.852e-9
0.402, 1.838e-9
0.401, 1.822e-9
0.400, 1.807e-9
0.399, 1.792e-9
0.398, 1.777e-9
0.397, 1.762e-9
0.396, 1.747e-9
0.395, 1.732e-9
0.394, 1.717e-9
0.393, 1.703e-9
0.392, 1.687e-9
0.391, 1.672e-9
0.390, 1.658e-9
0.389, 1.644e-9
0.388, 1.629e-9
0.387, 1.615e-9
0.386, 1.601e-9
0.385, 1.587e-9
0.384, 1.573e-9
0.383, 1.560e-9
0.382, 1.545e-9
0.381, 1.531e-9
0.380, 1.517e-9
0.379, 1.503e-9
0.378, 1.489e-9
0.377, 1.475e-9
0.376, 1.462e-9
0.375, 1.446e-9
0.374, 1.432e-9
0.373, 1.419e-9
0.372, 1.405e-9
0.371, 1.391e-9
0.370, 1.377e-9
0.369, 1.364e-9
0.368, 1.352e-9
0.367, 1.338e-9
0.366, 1.324e-9
0.365, 1.309e-9
0.364, 1.296e-9
0.363, 1.283e-9
0.362, 1.270e-9
0.361, 1.257e-9
0.360, 1.244e-9
0.359, 1.230e-9
0.358, 1.219e-9
0.357, 1.206e-9
0.356, 1.192e-9
0.355, 1.181e-9
0.354, 1.169e-9
0.353, 1.157e-9
0.352, 1.144e-9
0.351, 1.131e-9
0.350, 1.119e-9
0.349, 1.107e-9
0.348, 1.094e-9
0.347, 1.081e-9
0.346, 1.068e-9
0.345, 1.056e-9
0.344, 1.043e-9
0.343, 1.030e-9
0.342, 1.018e-9
0.341, 1.006e-9
0.340, 9.941e-10
0.339, 9.822e-10
0.338, 9.706e-10
0.337, 9.588e-10
0.336, 9.476e-10
0.335, 9.361e-10
0.334, 9.241e-10
0.333, 9.125e-10
0.332, 9.010e-10
0.331, 8.891e-10
0.330, 8.781e-10
0.329, 8.671e-10
0.328, 8.557e-10
0.327, 8.420e-10
0.326, 8.304e-10
0.325, 8.188e-10
0.324, 8.070e-10
0.323, 7.963e-10
0.322, 7.850e-10
0.321, 7.738e-10
0.320, 7.632e-10
0.319, 7.514e-10
0.318, 7.401e-10
0.317, 7.285e-10
0.316, 7.170e-10
0.315, 7.057e-10
0.314, 6.948e-10
0.313, 6.836e-10
0.312, 6.727e-10
0.311, 6.616e-10
0.310, 6.517e-10
0.309, 6.408e-10
0.308, 6.289e-10
0.307, 6.141e-10
0.306, 6.035e-10
0.305, 5.948e-10
0.304, 5.852e-10
0.303, 5.743e-10
0.302, 5.634e-10
0.301, 5.531e-10
0.300, 5.420e-10
0.299, 5.313e-10
0.298, 5.213e-10
0.297, 5.121e-10
0.296, 5.019e-10
0.295, 4.918e-10
0.294, 4.825e-10
0.293, 4.713e-10
0.292, 4.612e-10
0.291, 4.521e-10
0.290, 4.414e-10
0.289, 4.308e-10
0.288, 4.208e-10
0.287, 4.106e-10
0.286, 4.019e-10
0.285, 3.926e-10
0.284, 3.829e-10
0.283, 3.733e-10
0.282, 3.633e-10
0.281, 3.539e-10
0.280, 3.445e-10
0.279, 3.346e-10
0.278, 3.265e-10
0.277, 3.173e-10
0.276, 3.084e-10
0.275, 2.995e-10
0.274, 2.895e-10
0.273, 2.800e-10
0.272, 2.710e-10
0.271, 2.619e-10
0.270, 2.519e-10
0.269, 2.428e-10
0.268, 2.339e-10
0.267, 2.251e-10
0.266, 2.167e-10
0.265, 2.072e-10
0.264, 1.991e-10
0.263, 1.914e-10
0.262, 1.828e-10
0.261, 1.730e-10
0.260, 1.637e-10
0.259, 1.555e-10
0.258, 1.477e-10
0.257, 1.407e-10
0.256, 1.326e-10
0.255, 1.245e-10
0.254, 1.164e-10
0.253, 1.073e-10
0.252, 1.002e-10
0.251, 9.351e-11
0.250, 8.536e-11
0.249, 7.805e-11
0.248, 6.906e-11
0.247, 6.058e-11
0.246, 5.484e-11
0.245, 4.648e-11
0.244, 3.845e-11
0.243, 3.221e-11
0.242, 2.399e-11
0.241, 1.657e-11
0.240, 1.004e-11
0.239, 2.382e-12
0.238, -4.578e-12
0.237, -1.218e-11
0.236, -1.890e-11
0.235, -2.633e-11
0.234, -3.407e-11
0.233, -3.926e-11
0.232, -4.631e-11
0.231, -5.402e-11
0.230, -6.021e-11
0.229, -6.746e-11
0.228, -7.356e-11
0.227, -7.896e-11
0.226, -8.620e-11
0.225, -9.140e-11
0.224, -9.727e-11
0.223, -1.050e-10
0.222, -1.113e-10
0.221, -1.168e-10
0.220, -1.226e-10
0.219, -1.295e-10
0.218, -1.366e-10
0.217, -1.415e-10
0.216, -1.480e-10
0.215, -1.539e-10
0.214, -1.588e-10
0.213, -1.657e-10
0.212, -1.708e-10
0.211, -1.765e-10
0.210, -1.812e-10
0.209, -1.867e-10
0.208, -1.915e-10
0.207, -1.977e-10
0.206, -2.034e-10
0.205, -2.069e-10
0.204, -2.104e-10
0.203, -2.177e-10
0.202, -2.229e-10
0.201, -2.290e-10
0.200, -2.355e-10
0.199, -2.407e-10
0.198, -2.452e-10
0.197, -2.505e-10
0.196, -2.557e-10
0.195, -2.609e-10
0.194, -2.662e-10
0.193, -2.706e-10
0.192, -2.755e-10
0.191, -2.810e-10
0.190, -2.861e-10
0.189, -2.910e-10
0.188, -2.956e-10
0.187, -3.014e-10
0.186, -3.070e-10
0.185, -3.119e-10
0.184, -3.158e-10
0.183, -3.205e-10
0.182, -3.258e-10
0.181, -3.311e-10
0.180, -3.349e-10
0.179, -3.390e-10
0.178, -3.437e-10
0.177, -3.489e-10
0.176, -3.529e-10
0.175, -3.578e-10
0.174, -3.629e-10
0.173, -3.677e-10
0.172, -3.719e-10
0.171, -3.763e-10
0.170, -3.811e-10
0.169, -3.853e-10
0.168, -3.897e-10
0.167, -3.946e-10
0.166, -3.981e-10
0.165, -4.024e-10
0.164, -4.076e-10
0.163, -4.126e-10
0.162, -4.172e-10
0.161, -4.218e-10
0.160, -4.262e-10
0.159, -4.303e-10
0.158, -4.345e-10
0.157, -4.385e-10
0.156, -4.432e-10
0.155, -4.481e-10
0.154, -4.519e-10
0.153, -4.556e-10
0.152, -4.599e-10
0.151, -4.649e-10
0.150, -4.682e-10
0.149, -4.735e-10
0.148, -4.776e-10
0.147, -4.820e-10
0.146, -4.871e-10
0.145, -4.919e-10
0.144, -4.961e-10
0.143, -5.008e-10
0.142, -5.048e-10
0.141, -5.088e-10
0.140, -5.132e-10
0.139, -5.175e-10
0.138, -5.223e-10
0.137, -5.268e-10
0.136, -5.306e-10
0.135, -5.358e-10
0.134, -5.406e-10
0.133, -5.450e-10
0.132, -5.493e-10
0.131, -5.523e-10
0.130, -5.566e-10
0.129, -5.619e-10
0.128, -5.664e-10
0.127, -5.708e-10
0.126, -5.752e-10
0.125, -5.805e-10
0.124, -5.847e-10
0.123, -5.889e-10
0.122, -5.937e-10
0.121, -5.987e-10
0.120, -6.036e-10
0.119, -6.080e-10
0.118, -6.117e-10
0.117, -6.169e-10
0.116, -6.219e-10
0.115, -6.245e-10
0.114, -6.305e-10
0.113, -6.355e-10
0.112, -6.395e-10
0.111, -6.437e-10
0.110, -6.484e-10
0.109, -6.540e-10
0.108, -6.592e-10
0.107, -6.635e-10
0.106, -6.678e-10
0.105, -6.726e-10
0.104, -6.780e-10
0.103, -6.829e-10
0.102, -6.928e-10
0.101, -6.957e-10
0.100, -6.995e-10
0.099, -7.022e-10
0.098, -7.075e-10
0.097, -7.127e-10
0.096, -7.172e-10
0.095, -7.224e-10
0.094, -7.259e-10
0.093, -7.312e-10
0.092, -7.361e-10
0.091, -7.417e-10
0.090, -7.471e-10
0.089, -7.502e-10
0.088, -7.563e-10
0.087, -7.615e-10
0.086, -7.664e-10
0.085, -7.707e-10
0.084, -7.756e-10
0.083, -7.813e-10
0.082, -7.869e-10
0.081, -7.909e-10
0.080, -7.956e-10
0.079, -8.013e-10
0.078, -8.066e-10
0.077, -8.113e-10
0.076, -8.159e-10
0.075, -8.210e-10
0.074, -8.267e-10
0.073, -8.312e-10
0.072, -8.372e-10
0.071, -8.430e-10
0.070, -8.473e-10
0.069, -8.525e-10
0.068, -8.586e-10
0.067, -8.631e-10
0.066, -8.695e-10
0.065, -8.739e-10
0.064, -8.789e-10
0.063, -8.849e-10
0.062, -8.901e-10
0.061, -8.959e-10
0.060, -9.010e-10
0.059, -9.067e-10
0.058, -9.122e-10
0.057, -9.171e-10
0.056, -9.233e-10
0.055, -9.280e-10
0.054, -9.338e-10
0.053, -9.400e-10
0.052, -9.446e-10
0.051, -9.494e-10
0.050, -9.554e-10
0.049, -9.610e-10
0.048, -9.666e-10
0.047, -9.724e-10
0.046, -9.781e-10
0.045, -9.839e-10
0.044, -9.891e-10
0.043, -9.943e-10
0.042, -1.000e-9
0.041, -1.006e-9
0.040, -1.012e-9
0.039, -1.017e-9
0.038, -1.022e-9
0.037, -1.029e-9
0.036, -1.034e-9
0.035, -1.039e-9
0.034, -1.045e-9
0.033, -1.052e-9
0.032, -1.057e-9
0.031, -1.063e-9
0.030, -1.068e-9
0.029, -1.074e-9
0.028, -1.080e-9
0.027, -1.086e-9
0.026, -1.091e-9
0.025, -1.097e-9
0.024, -1.103e-9
0.023, -1.109e-9
0.022, -1.115e-9
0.021, -1.120e-9
0.020, -1.126e-9
0.019, -1.132e-9
0.018, -1.138e-9
0.017, -1.143e-9
0.016, -1.149e-9
0.015, -1.155e-9
0.014, -1.161e-9
0.013, -1.166e-9
0.012, -1.173e-9
0.011, -1.178e-9
0.010, -1.184e-9
0.009, -1.190e-9
0.008, -1.196e-9
0.007, -1.202e-9
0.006, -1.208e-9
0.005, -1.215e-9
0.004, -1.221e-9
0.003, -1.226e-9
0.002, -1.231e-9
0.001, -1.238e-9
-0.000, -1.239e-9
-0.001, -1.245e-9
-0.002, -1.254e-9
-0.003, -1.261e-9
-0.004, -1.266e-9
-0.005, -1.272e-9
-0.006, -1.278e-9
-0.007, -1.285e-9
-0.008, -1.291e-9
-0.009, -1.297e-9
-0.010, -1.303e-9
-0.011, -1.309e-9
-0.012, -1.315e-9
-0.013, -1.322e-9
-0.014, -1.328e-9
-0.015, -1.334e-9
-0.016, -1.339e-9
-0.017, -1.346e-9
-0.018, -1.352e-9
-0.019, -1.359e-9
-0.020, -1.365e-9
-0.021, -1.371e-9
-0.022, -1.378e-9
-0.023, -1.385e-9
-0.024, -1.394e-9
-0.025, -1.399e-9
-0.026, -1.405e-9
-0.027, -1.411e-9
-0.028, -1.419e-9
-0.029, -1.429e-9
-0.030, -1.437e-9
-0.031, -1.443e-9
-0.032, -1.449e-9
-0.033, -1.455e-9
-0.034, -1.462e-9
-0.035, -1.470e-9
-0.036, -1.487e-9
-0.037, -1.497e-9
-0.038, -1.502e-9
-0.039, -1.505e-9
-0.040, -1.513e-9
-0.041, -1.521e-9
-0.042, -1.527e-9
-0.043, -1.533e-9
-0.044, -1.541e-9
-0.045, -1.546e-9
-0.046, -1.553e-9
-0.047, -1.557e-9
-0.048, -1.558e-9
-0.049, -1.561e-9
-0.050, -1.561e-9
-0.051, -1.562e-9
-0.052, -1.563e-9
-0.053, -1.568e-9
-0.054, -1.578e-9
-0.055, -1.587e-9
-0.056, -1.596e-9
-0.057, -1.601e-9
-0.058, -1.607e-9
-0.059, -1.609e-9
-0.060, -1.613e-9
-0.061, -1.619e-9
-0.062, -1.621e-9
-0.063, -1.620e-9
-0.064, -1.624e-9
-0.065, -1.630e-9
-0.066, -1.635e-9
-0.067, -1.639e-9
-0.068, -1.646e-9
-0.069, -1.655e-9
-0.070, -1.662e-9
-0.071, -1.674e-9
-0.072, -1.682e-9
-0.073, -1.676e-9
-0.074, -1.678e-9
-0.075, -1.690e-9
-0.076, -1.696e-9
-0.077, -1.695e-9
-0.078, -1.700e-9
-0.079, -1.705e-9
-0.080, -1.711e-9
-0.081, -1.717e-9
-0.082, -1.723e-9
-0.083, -1.729e-9
-0.084, -1.734e-9
-0.085, -1.741e-9
-0.086, -1.747e-9
-0.087, -1.751e-9
-0.088, -1.757e-9
-0.089, -1.763e-9
-0.090, -1.767e-9
-0.091, -1.774e-9
-0.092, -1.779e-9
-0.093, -1.784e-9
-0.094, -1.791e-9
-0.095, -1.797e-9
-0.096, -1.803e-9
-0.097, -1.809e-9
-0.098, -1.814e-9
-0.099, -1.819e-9
-0.100, -1.825e-9
-0.101, -1.831e-9
-0.102, -1.839e-9
-0.103, -1.848e-9
-0.104, -1.852e-9
-0.105, -1.856e-9
-0.106, -1.861e-9
-0.107, -1.868e-9
-0.108, -1.874e-9
-0.109, -1.878e-9
-0.110, -1.884e-9
-0.111, -1.890e-9
-0.112, -1.895e-9
-0.113, -1.899e-9
-0.114, -1.905e-9
-0.115, -1.911e-9
-0.116, -1.916e-9
-0.117, -1.922e-9
-0.118, -1.927e-9
-0.119, -1.932e-9
-0.120, -1.938e-9
-0.121, -1.944e-9
-0.122, -1.948e-9
-0.123, -1.954e-9
-0.124, -1.959e-9
-0.125, -1.964e-9
-0.126, -1.969e-9
-0.127, -1.975e-9
-0.128, -1.980e-9
-0.129, -1.984e-9
-0.130, -1.990e-9
-0.131, -1.996e-9
-0.132, -2.000e-9
-0.133, -2.005e-9
-0.134, -2.012e-9
-0.135, -2.017e-9
-0.136, -2.022e-9
-0.137, -2.028e-9
-0.138, -2.033e-9
-0.139, -2.039e-9
-0.140, -2.044e-9
-0.141, -2.048e-9
-0.142, -2.054e-9
-0.143, -2.060e-9
-0.144, -2.064e-9
-0.145, -2.070e-9
-0.146, -2.076e-9
-0.147, -2.082e-9
-0.148, -2.087e-9
-0.149, -2.092e-9
-0.150, -2.098e-9
-0.151, -2.102e-9
-0.152, -2.108e-9
-0.153, -2.114e-9
-0.154, -2.119e-9
-0.155, -2.125e-9
-0.156, -2.130e-9
-0.157, -2.135e-9
-0.158, -2.140e-9
-0.159, -2.145e-9
-0.160, -2.151e-9
-0.161, -2.156e-9
-0.162, -2.161e-9
-0.163, -2.167e-9
-0.164, -2.171e-9
-0.165, -2.176e-9
-0.166, -2.182e-9
-0.167, -2.187e-9
-0.168, -2.193e-9
-0.169, -2.199e-9
-0.170, -2.203e-9
-0.171, -2.209e-9
-0.172, -2.214e-9
-0.173, -2.219e-9
-0.174, -2.224e-9
-0.175, -2.229e-9
-0.176, -2.235e-9
-0.177, -2.240e-9
-0.178, -2.245e-9
-0.179, -2.250e-9
-0.180, -2.255e-9
-0.181, -2.259e-9
-0.182, -2.265e-9
-0.183, -2.270e-9
-0.184, -2.276e-9
-0.185, -2.282e-9
-0.186, -2.287e-9
-0.187, -2.292e-9
-0.188, -2.297e-9
-0.189, -2.301e-9
-0.190, -2.307e-9
-0.191, -2.312e-9
-0.192, -2.317e-9
-0.193, -2.322e-9
-0.194, -2.327e-9
-0.195, -2.331e-9
-0.196, -2.338e-9
-0.197, -2.343e-9
-0.198, -2.348e-9
-0.199, -2.353e-9
-0.200, -2.358e-9
-0.201, -2.363e-9
-0.202, -2.369e-9
-0.203, -2.374e-9
-0.204, -2.379e-9
-0.205, -2.380e-9
-0.206, -2.387e-9
-0.207, -2.393e-9
-0.208, -2.398e-9
-0.209, -2.404e-9
-0.210, -2.409e-9
-0.211, -2.414e-9
-0.212, -2.420e-9
-0.213, -2.424e-9
-0.214, -2.429e-9
-0.215, -2.434e-9
-0.216, -2.439e-9
-0.217, -2.445e-9
-0.218, -2.448e-9
-0.219, -2.454e-9
-0.220, -2.460e-9
-0.221, -2.465e-9
-0.222, -2.470e-9
-0.223, -2.475e-9
-0.224, -2.481e-9
-0.225, -2.486e-9
-0.226, -2.490e-9
-0.227, -2.495e-9
-0.228, -2.501e-9
-0.229, -2.506e-9
-0.230, -2.511e-9
-0.231, -2.514e-9
-0.232, -2.521e-9
-0.233, -2.526e-9
-0.234, -2.531e-9
-0.235, -2.537e-9
-0.236, -2.542e-9
-0.237, -2.546e-9
-0.238, -2.552e-9
-0.239, -2.556e-9
-0.240, -2.562e-9
-0.241, -2.567e-9
-0.242, -2.573e-9
-0.243, -2.577e-9
-0.244, -2.582e-9
-0.245, -2.587e-9
-0.246, -2.593e-9
-0.247, -2.598e-9
-0.248, -2.602e-9
-0.249, -2.607e-9
-0.250, -2.612e-9
-0.251, -2.619e-9
-0.252, -2.624e-9
-0.253, -2.628e-9
-0.254, -2.633e-9
-0.255, -2.638e-9
-0.256, -2.642e-9
-0.257, -2.646e-9
-0.258, -2.652e-9
-0.259, -2.658e-9
-0.260, -2.662e-9
-0.261, -2.668e-9
-0.262, -2.673e-9
-0.263, -2.678e-9
-0.264, -2.683e-9
-0.265, -2.688e-9
-0.266, -2.691e-9
-0.267, -2.697e-9
-0.268, -2.704e-9
-0.269, -2.709e-9
-0.270, -2.715e-9
-0.271, -2.719e-9
-0.272, -2.724e-9
-0.273, -2.728e-9
-0.274, -2.733e-9
-0.275, -2.738e-9
-0.276, -2.744e-9
-0.277, -2.749e-9
-0.278, -2.755e-9
-0.279, -2.759e-9
-0.280, -2.765e-9
-0.281, -2.770e-9
-0.282, -2.776e-9
-0.283, -2.781e-9
-0.284, -2.786e-9
-0.285, -2.791e-9
-0.286, -2.797e-9
-0.287, -2.801e-9
-0.288, -2.806e-9
-0.289, -2.813e-9
-0.290, -2.818e-9
-0.291, -2.824e-9
-0.292, -2.827e-9
-0.293, -2.832e-9
-0.294, -2.837e-9
-0.295, -2.840e-9
-0.296, -2.846e-9
-0.297, -2.853e-9
-0.298, -2.856e-9
-0.299, -2.861e-9
-0.300, -2.866e-9
-0.301, -2.872e-9
-0.302, -2.876e-9
-0.303, -2.882e-9
-0.304, -2.886e-9
-0.305, -2.891e-9
-0.306, -2.897e-9
-0.307, -2.906e-9
-0.308, -2.913e-9
-0.309, -2.915e-9
-0.310, -2.920e-9
-0.311, -2.923e-9
-0.312, -2.929e-9
-0.313, -2.934e-9
-0.314, -2.939e-9
-0.315, -2.944e-9
-0.316, -2.948e-9
-0.317, -2.953e-9
-0.318, -2.959e-9
-0.319, -2.964e-9
-0.320, -2.968e-9
-0.321, -2.974e-9
-0.322, -2.978e-9
-0.323, -2.982e-9
-0.324, -2.990e-9
-0.325, -2.994e-9
-0.326, -3.000e-9
-0.327, -3.005e-9
-0.328, -3.009e-9
-0.329, -3.015e-9
-0.330, -3.020e-9
-0.331, -3.025e-9
-0.332, -3.030e-9
-0.333, -3.034e-9
-0.334, -3.041e-9
-0.335, -3.046e-9
-0.336, -3.051e-9
-0.337, -3.057e-9
-0.338, -3.062e-9
-0.339, -3.068e-9
-0.340, -3.073e-9
-0.341, -3.077e-9
-0.342, -3.084e-9
-0.343, -3.088e-9
-0.344, -3.093e-9
-0.345, -3.099e-9
-0.346, -3.103e-9
-0.347, -3.108e-9
-0.348, -3.113e-9
-0.349, -3.117e-9
-0.350, -3.124e-9
-0.351, -3.127e-9
-0.352, -3.133e-9
-0.353, -3.140e-9
-0.354, -3.144e-9
-0.355, -3.149e-9
-0.356, -3.155e-9
-0.357, -3.161e-9
-0.358, -3.166e-9
-0.359, -3.170e-9
-0.360, -3.177e-9
-0.361, -3.184e-9
-0.362, -3.187e-9
-0.363, -3.193e-9
-0.364, -3.198e-9
-0.365, -3.204e-9
-0.366, -3.211e-9
-0.367, -3.216e-9
-0.368, -3.220e-9
-0.369, -3.226e-9
-0.370, -3.231e-9
-0.371, -3.237e-9
-0.372, -3.240e-9
-0.373, -3.246e-9
-0.374, -3.252e-9
-0.375, -3.257e-9
-0.376, -3.263e-9
-0.377, -3.269e-9
-0.378, -3.275e-9
-0.379, -3.281e-9
-0.380, -3.286e-9
-0.381, -3.289e-9
-0.382, -3.296e-9
-0.383, -3.302e-9
-0.384, -3.307e-9
-0.385, -3.312e-9
-0.386, -3.318e-9
-0.387, -3.323e-9
-0.388, -3.329e-9
-0.389, -3.335e-9
-0.390, -3.340e-9
-0.391, -3.346e-9
-0.392, -3.352e-9
-0.393, -3.358e-9
-0.394, -3.362e-9
-0.395, -3.368e-9
-0.396, -3.375e-9
-0.397, -3.378e-9
-0.398, -3.385e-9
-0.399, -3.391e-9
-0.400, -3.397e-9
-0.401, -3.401e-9
-0.402, -3.405e-9
-0.403, -3.412e-9
-0.404, -3.419e-9
-0.405, -3.425e-9
-0.406, -3.430e-9
-0.407, -3.435e-9
-0.408, -3.442e-9
-0.409, -3.448e-9
-0.410, -3.452e-9
-0.411, -3.458e-9
-0.412, -3.464e-9
-0.413, -3.469e-9
-0.414, -3.475e-9
-0.415, -3.481e-9
-0.416, -3.487e-9
-0.417, -3.494e-9
-0.418, -3.500e-9
-0.419, -3.504e-9
-0.420, -3.509e-9
-0.421, -3.516e-9
-0.422, -3.523e-9
-0.423, -3.528e-9
-0.424, -3.533e-9
-0.425, -3.538e-9
-0.426, -3.544e-9
-0.427, -3.550e-9
-0.428, -3.556e-9
-0.429, -3.562e-9
-0.430, -3.569e-9
-0.431, -3.575e-9
-0.432, -3.580e-9
-0.433, -3.586e-9
-0.434, -3.591e-9
-0.435, -3.598e-9
-0.436, -3.603e-9
-0.437, -3.609e-9
-0.438, -3.615e-9
-0.439, -3.620e-9
-0.440, -3.627e-9
-0.441, -3.634e-9
-0.442, -3.640e-9
-0.443, -3.647e-9
-0.444, -3.653e-9
-0.445, -3.658e-9
-0.446, -3.664e-9
-0.447, -3.669e-9
-0.448, -3.677e-9
-0.449, -3.683e-9
-0.450, -3.690e-9
-0.451, -3.695e-9
-0.452, -3.702e-9
-0.453, -3.709e-9
-0.454, -3.715e-9
-0.455, -3.720e-9
-0.456, -3.727e-9
-0.457, -3.733e-9
-0.458, -3.739e-9
-0.459, -3.746e-9
-0.460, -3.754e-9
-0.461, -3.759e-9
-0.462, -3.765e-9
-0.463, -3.772e-9
-0.464, -3.777e-9
-0.465, -3.784e-9
-0.466, -3.791e-9
-0.467, -3.798e-9
-0.468, -3.805e-9
-0.469, -3.812e-9
-0.470, -3.818e-9
-0.471, -3.824e-9
-0.472, -3.831e-9
-0.473, -3.838e-9
-0.474, -3.843e-9
-0.475, -3.851e-9
-0.476, -3.857e-9
-0.477, -3.864e-9
-0.478, -3.871e-9
-0.479, -3.877e-9
-0.480, -3.884e-9
-0.481, -3.889e-9
-0.482, -3.895e-9
-0.483, -3.902e-9
-0.484, -3.907e-9
-0.485, -3.914e-9
-0.486, -3.923e-9
-0.487, -3.928e-9
-0.488, -3.935e-9
-0.489, -3.942e-9
-0.490, -3.949e-9
-0.491, -3.957e-9
-0.492, -3.963e-9
-0.493, -3.969e-9
-0.494, -3.975e-9
-0.495, -3.982e-9
-0.496, -3.989e-9
-0.497, -3.996e-9
-0.498, -4.006e-9
-0.499, -4.019e-9
