Mar. 7, 2025   14:38:13
Cyclic Voltammetry
File: cv surface incubated 5.bin
Data Source:  Experiment
Instrument Model:  CHI920C
Ref. Electrode: 
Header: 
Note: 

Init E (V) = -0.5
High E (V) = 0.5
Low E (V) = -0.5
Init P/N = P
Scan Rate (V/s) = 0.05
Segment = 2
Sample Interval (V) = 0.001
Quiet Time (sec) = 10
Sensitivity (A/V) = 1e-8

Results:

Channel 1:
Segment 1:

Segment 2:

Potential/V, Current/A

-0.500, -1.990e-9
-0.499, -1.898e-9
-0.498, -1.845e-9
-0.497, -1.814e-9
-0.496, -1.789e-9
-0.495, -1.767e-9
-0.494, -1.745e-9
-0.493, -1.725e-9
-0.492, -1.706e-9
-0.491, -1.688e-9
-0.490, -1.672e-9
-0.489, -1.655e-9
-0.488, -1.638e-9
-0.487, -1.623e-9
-0.486, -1.609e-9
-0.485, -1.594e-9
-0.484, -1.578e-9
-0.483, -1.565e-9
-0.482, -1.552e-9
-0.481, -1.537e-9
-0.480, -1.523e-9
-0.479, -1.510e-9
-0.478, -1.497e-9
-0.477, -1.484e-9
-0.476, -1.471e-9
-0.475, -1.459e-9
-0.474, -1.446e-9
-0.473, -1.433e-9
-0.472, -1.421e-9
-0.471, -1.410e-9
-0.470, -1.398e-9
-0.469, -1.386e-9
-0.468, -1.374e-9
-0.467, -1.363e-9
-0.466, -1.352e-9
-0.465, -1.340e-9
-0.464, -1.329e-9
-0.463, -1.317e-9
-0.462, -1.306e-9
-0.461, -1.295e-9
-0.460, -1.284e-9
-0.459, -1.273e-9
-0.458, -1.262e-9
-0.457, -1.252e-9
-0.456, -1.242e-9
-0.455, -1.232e-9
-0.454, -1.221e-9
-0.453, -1.209e-9
-0.452, -1.199e-9
-0.451, -1.190e-9
-0.450, -1.179e-9
-0.449, -1.168e-9
-0.448, -1.159e-9
-0.447, -1.149e-9
-0.446, -1.138e-9
-0.445, -1.129e-9
-0.444, -1.118e-9
-0.443, -1.108e-9
-0.442, -1.099e-9
-0.441, -1.088e-9
-0.440, -1.080e-9
-0.439, -1.070e-9
-0.438, -1.060e-9
-0.437, -1.051e-9
-0.436, -1.041e-9
-0.435, -1.033e-9
-0.434, -1.023e-9
-0.433, -1.013e-9
-0.432, -1.004e-9
-0.431, -9.944e-10
-0.430, -9.865e-10
-0.429, -9.769e-10
-0.428, -9.664e-10
-0.427, -9.579e-10
-0.426, -9.481e-10
-0.425, -9.403e-10
-0.424, -9.311e-10
-0.423, -9.209e-10
-0.422, -9.134e-10
-0.421, -9.045e-10
-0.420, -8.955e-10
-0.419, -8.870e-10
-0.418, -8.774e-10
-0.417, -8.686e-10
-0.416, -8.600e-10
-0.415, -8.507e-10
-0.414, -8.420e-10
-0.413, -8.337e-10
-0.412, -8.254e-10
-0.411, -8.163e-10
-0.410, -8.069e-10
-0.409, -7.994e-10
-0.408, -7.913e-10
-0.407, -7.822e-10
-0.406, -7.745e-10
-0.405, -7.659e-10
-0.404, -7.576e-10
-0.403, -7.485e-10
-0.402, -7.399e-10
-0.401, -7.319e-10
-0.400, -7.240e-10
-0.399, -7.157e-10
-0.398, -7.074e-10
-0.397, -6.992e-10
-0.396, -6.904e-10
-0.395, -6.831e-10
-0.394, -6.742e-10
-0.393, -6.663e-10
-0.392, -6.585e-10
-0.391, -6.502e-10
-0.390, -6.416e-10
-0.389, -6.337e-10
-0.388, -6.262e-10
-0.387, -6.191e-10
-0.386, -6.113e-10
-0.385, -6.027e-10
-0.384, -5.940e-10
-0.383, -5.868e-10
-0.382, -5.796e-10
-0.381, -5.710e-10
-0.380, -5.638e-10
-0.379, -5.563e-10
-0.378, -5.473e-10
-0.377, -5.400e-10
-0.376, -5.319e-10
-0.375, -5.242e-10
-0.374, -5.175e-10
-0.373, -5.096e-10
-0.372, -5.022e-10
-0.371, -4.955e-10
-0.370, -4.875e-10
-0.369, -4.798e-10
-0.368, -4.726e-10
-0.367, -4.644e-10
-0.366, -4.564e-10
-0.365, -4.496e-10
-0.364, -4.420e-10
-0.363, -4.337e-10
-0.362, -4.267e-10
-0.361, -4.210e-10
-0.360, -4.126e-10
-0.359, -4.047e-10
-0.358, -3.984e-10
-0.357, -3.916e-10
-0.356, -3.837e-10
-0.355, -3.766e-10
-0.354, -3.690e-10
-0.353, -3.624e-10
-0.352, -3.555e-10
-0.351, -3.485e-10
-0.350, -3.405e-10
-0.349, -3.341e-10
-0.348, -3.274e-10
-0.347, -3.201e-10
-0.346, -3.128e-10
-0.345, -3.070e-10
-0.344, -2.987e-10
-0.343, -2.914e-10
-0.342, -2.850e-10
-0.341, -2.781e-10
-0.340, -2.712e-10
-0.339, -2.642e-10
-0.338, -2.579e-10
-0.337, -2.501e-10
-0.336, -2.441e-10
-0.335, -2.374e-10
-0.334, -2.312e-10
-0.333, -2.240e-10
-0.332, -2.174e-10
-0.331, -2.099e-10
-0.330, -2.039e-10
-0.329, -1.974e-10
-0.328, -1.896e-10
-0.327, -1.833e-10
-0.326, -1.774e-10
-0.325, -1.694e-10
-0.324, -1.620e-10
-0.323, -1.568e-10
-0.322, -1.506e-10
-0.321, -1.441e-10
-0.320, -1.369e-10
-0.319, -1.307e-10
-0.318, -1.241e-10
-0.317, -1.179e-10
-0.316, -1.126e-10
-0.315, -1.051e-10
-0.314, -9.778e-11
-0.313, -9.178e-11
-0.312, -8.598e-11
-0.311, -7.895e-11
-0.310, -7.202e-11
-0.309, -6.551e-11
-0.308, -6.061e-11
-0.307, -4.900e-11
-0.306, -4.311e-11
-0.305, -3.894e-11
-0.304, -3.447e-11
-0.303, -2.752e-11
-0.302, -2.088e-11
-0.301, -1.475e-11
-0.300, -9.120e-12
-0.299, -2.677e-12
-0.298, 4.293e-12
-0.297, 1.034e-11
-0.296, 1.573e-11
-0.295, 2.152e-11
-0.294, 2.741e-11
-0.293, 3.448e-11
-0.292, 3.958e-11
-0.291, 4.583e-11
-0.290, 5.283e-11
-0.289, 5.815e-11
-0.288, 6.474e-11
-0.287, 7.128e-11
-0.286, 7.643e-11
-0.285, 8.278e-11
-0.284, 8.873e-11
-0.283, 9.455e-11
-0.282, 1.005e-10
-0.281, 1.060e-10
-0.280, 1.120e-10
-0.279, 1.184e-10
-0.278, 1.232e-10
-0.277, 1.293e-10
-0.276, 1.361e-10
-0.275, 1.407e-10
-0.274, 1.466e-10
-0.273, 1.525e-10
-0.272, 1.589e-10
-0.271, 1.647e-10
-0.270, 1.705e-10
-0.269, 1.763e-10
-0.268, 1.821e-10
-0.267, 1.871e-10
-0.266, 1.937e-10
-0.265, 1.987e-10
-0.264, 2.047e-10
-0.263, 2.104e-10
-0.262, 2.157e-10
-0.261, 2.220e-10
-0.260, 2.284e-10
-0.259, 2.318e-10
-0.258, 2.387e-10
-0.257, 2.445e-10
-0.256, 2.497e-10
-0.255, 2.557e-10
-0.254, 2.614e-10
-0.253, 2.673e-10
-0.252, 2.722e-10
-0.251, 2.775e-10
-0.250, 2.839e-10
-0.249, 2.884e-10
-0.248, 2.947e-10
-0.247, 2.999e-10
-0.246, 3.056e-10
-0.245, 3.122e-10
-0.244, 3.178e-10
-0.243, 3.215e-10
-0.242, 3.275e-10
-0.241, 3.322e-10
-0.240, 3.381e-10
-0.239, 3.442e-10
-0.238, 3.494e-10
-0.237, 3.545e-10
-0.236, 3.604e-10
-0.235, 3.657e-10
-0.234, 3.721e-10
-0.233, 3.765e-10
-0.232, 3.817e-10
-0.231, 3.875e-10
-0.230, 3.927e-10
-0.229, 3.971e-10
-0.228, 4.024e-10
-0.227, 4.072e-10
-0.226, 4.134e-10
-0.225, 4.185e-10
-0.224, 4.239e-10
-0.223, 4.294e-10
-0.222, 4.344e-10
-0.221, 4.395e-10
-0.220, 4.451e-10
-0.219, 4.511e-10
-0.218, 4.567e-10
-0.217, 4.601e-10
-0.216, 4.666e-10
-0.215, 4.718e-10
-0.214, 4.768e-10
-0.213, 4.821e-10
-0.212, 4.873e-10
-0.211, 4.932e-10
-0.210, 4.980e-10
-0.209, 5.025e-10
-0.208, 5.079e-10
-0.207, 5.123e-10
-0.206, 5.184e-10
-0.205, 5.225e-10
-0.204, 5.255e-10
-0.203, 5.319e-10
-0.202, 5.372e-10
-0.201, 5.424e-10
-0.200, 5.481e-10
-0.199, 5.539e-10
-0.198, 5.590e-10
-0.197, 5.645e-10
-0.196, 5.699e-10
-0.195, 5.741e-10
-0.194, 5.797e-10
-0.193, 5.844e-10
-0.192, 5.885e-10
-0.191, 5.938e-10
-0.190, 6.001e-10
-0.189, 6.047e-10
-0.188, 6.087e-10
-0.187, 6.137e-10
-0.186, 6.192e-10
-0.185, 6.249e-10
-0.184, 6.298e-10
-0.183, 6.345e-10
-0.182, 6.390e-10
-0.181, 6.442e-10
-0.180, 6.486e-10
-0.179, 6.525e-10
-0.178, 6.573e-10
-0.177, 6.620e-10
-0.176, 6.675e-10
-0.175, 6.719e-10
-0.174, 6.763e-10
-0.173, 6.833e-10
-0.172, 6.895e-10
-0.171, 6.936e-10
-0.170, 6.983e-10
-0.169, 7.027e-10
-0.168, 7.083e-10
-0.167, 7.138e-10
-0.166, 7.174e-10
-0.165, 7.219e-10
-0.164, 7.261e-10
-0.163, 7.313e-10
-0.162, 7.376e-10
-0.161, 7.420e-10
-0.160, 7.468e-10
-0.159, 7.522e-10
-0.158, 7.577e-10
-0.157, 7.617e-10
-0.156, 7.650e-10
-0.155, 7.699e-10
-0.154, 7.761e-10
-0.153, 7.812e-10
-0.152, 7.860e-10
-0.151, 7.895e-10
-0.150, 7.949e-10
-0.149, 8.005e-10
-0.148, 8.063e-10
-0.147, 8.108e-10
-0.146, 8.149e-10
-0.145, 8.204e-10
-0.144, 8.252e-10
-0.143, 8.304e-10
-0.142, 8.352e-10
-0.141, 8.406e-10
-0.140, 8.446e-10
-0.139, 8.495e-10
-0.138, 8.544e-10
-0.137, 8.585e-10
-0.136, 8.637e-10
-0.135, 8.687e-10
-0.134, 8.740e-10
-0.133, 8.786e-10
-0.132, 8.831e-10
-0.131, 8.886e-10
-0.130, 8.944e-10
-0.129, 8.978e-10
-0.128, 9.018e-10
-0.127, 9.079e-10
-0.126, 9.126e-10
-0.125, 9.165e-10
-0.124, 9.206e-10
-0.123, 9.256e-10
-0.122, 9.324e-10
-0.121, 9.364e-10
-0.120, 9.406e-10
-0.119, 9.453e-10
-0.118, 9.504e-10
-0.117, 9.551e-10
-0.116, 9.602e-10
-0.115, 9.651e-10
-0.114, 9.696e-10
-0.113, 9.738e-10
-0.112, 9.792e-10
-0.111, 9.849e-10
-0.110, 9.886e-10
-0.109, 9.926e-10
-0.108, 9.985e-10
-0.107, 1.003e-9
-0.106, 1.007e-9
-0.105, 1.011e-9
-0.104, 1.018e-9
-0.103, 1.025e-9
-0.102, 1.032e-9
-0.101, 1.034e-9
-0.100, 1.039e-9
-0.099, 1.044e-9
-0.098, 1.048e-9
-0.097, 1.052e-9
-0.096, 1.057e-9
-0.095, 1.063e-9
-0.094, 1.067e-9
-0.093, 1.071e-9
-0.092, 1.076e-9
-0.091, 1.080e-9
-0.090, 1.085e-9
-0.089, 1.089e-9
-0.088, 1.095e-9
-0.087, 1.100e-9
-0.086, 1.104e-9
-0.085, 1.110e-9
-0.084, 1.115e-9
-0.083, 1.118e-9
-0.082, 1.124e-9
-0.081, 1.130e-9
-0.080, 1.134e-9
-0.079, 1.137e-9
-0.078, 1.142e-9
-0.077, 1.148e-9
-0.076, 1.152e-9
-0.075, 1.157e-9
-0.074, 1.163e-9
-0.073, 1.167e-9
-0.072, 1.172e-9
-0.071, 1.176e-9
-0.070, 1.181e-9
-0.069, 1.186e-9
-0.068, 1.191e-9
-0.067, 1.195e-9
-0.066, 1.201e-9
-0.065, 1.206e-9
-0.064, 1.210e-9
-0.063, 1.215e-9
-0.062, 1.220e-9
-0.061, 1.224e-9
-0.060, 1.228e-9
-0.059, 1.234e-9
-0.058, 1.240e-9
-0.057, 1.243e-9
-0.056, 1.248e-9
-0.055, 1.255e-9
-0.054, 1.259e-9
-0.053, 1.263e-9
-0.052, 1.268e-9
-0.051, 1.273e-9
-0.050, 1.279e-9
-0.049, 1.283e-9
-0.048, 1.288e-9
-0.047, 1.293e-9
-0.046, 1.297e-9
-0.045, 1.303e-9
-0.044, 1.308e-9
-0.043, 1.312e-9
-0.042, 1.316e-9
-0.041, 1.321e-9
-0.040, 1.327e-9
-0.039, 1.332e-9
-0.038, 1.335e-9
-0.037, 1.341e-9
-0.036, 1.347e-9
-0.035, 1.351e-9
-0.034, 1.355e-9
-0.033, 1.361e-9
-0.032, 1.367e-9
-0.031, 1.372e-9
-0.030, 1.376e-9
-0.029, 1.380e-9
-0.028, 1.385e-9
-0.027, 1.390e-9
-0.026, 1.395e-9
-0.025, 1.399e-9
-0.024, 1.404e-9
-0.023, 1.409e-9
-0.022, 1.413e-9
-0.021, 1.419e-9
-0.020, 1.424e-9
-0.019, 1.430e-9
-0.018, 1.434e-9
-0.017, 1.440e-9
-0.016, 1.444e-9
-0.015, 1.449e-9
-0.014, 1.454e-9
-0.013, 1.459e-9
-0.012, 1.463e-9
-0.011, 1.468e-9
-0.010, 1.474e-9
-0.009, 1.478e-9
-0.008, 1.483e-9
-0.007, 1.489e-9
-0.006, 1.494e-9
-0.005, 1.498e-9
-0.004, 1.503e-9
-0.003, 1.507e-9
-0.002, 1.513e-9
-0.001, 1.518e-9
0.000, 1.518e-9
0.001, 1.523e-9
0.002, 1.531e-9
0.003, 1.536e-9
0.004, 1.541e-9
0.005, 1.546e-9
0.006, 1.551e-9
0.007, 1.557e-9
0.008, 1.562e-9
0.009, 1.566e-9
0.010, 1.571e-9
0.011, 1.576e-9
0.012, 1.581e-9
0.013, 1.586e-9
0.014, 1.591e-9
0.015, 1.596e-9
0.016, 1.602e-9
0.017, 1.607e-9
0.018, 1.612e-9
0.019, 1.617e-9
0.020, 1.622e-9
0.021, 1.627e-9
0.022, 1.632e-9
0.023, 1.636e-9
0.024, 1.642e-9
0.025, 1.647e-9
0.026, 1.651e-9
0.027, 1.656e-9
0.028, 1.662e-9
0.029, 1.666e-9
0.030, 1.671e-9
0.031, 1.677e-9
0.032, 1.682e-9
0.033, 1.687e-9
0.034, 1.692e-9
0.035, 1.698e-9
0.036, 1.702e-9
0.037, 1.707e-9
0.038, 1.713e-9
0.039, 1.717e-9
0.040, 1.722e-9
0.041, 1.727e-9
0.042, 1.732e-9
0.043, 1.738e-9
0.044, 1.744e-9
0.045, 1.749e-9
0.046, 1.753e-9
0.047, 1.759e-9
0.048, 1.763e-9
0.049, 1.770e-9
0.050, 1.774e-9
0.051, 1.778e-9
0.052, 1.783e-9
0.053, 1.788e-9
0.054, 1.794e-9
0.055, 1.798e-9
0.056, 1.804e-9
0.057, 1.811e-9
0.058, 1.816e-9
0.059, 1.821e-9
0.060, 1.825e-9
0.061, 1.830e-9
0.062, 1.836e-9
0.063, 1.842e-9
0.064, 1.845e-9
0.065, 1.851e-9
0.066, 1.856e-9
0.067, 1.862e-9
0.068, 1.868e-9
0.069, 1.874e-9
0.070, 1.879e-9
0.071, 1.884e-9
0.072, 1.889e-9
0.073, 1.895e-9
0.074, 1.899e-9
0.075, 1.905e-9
0.076, 1.911e-9
0.077, 1.916e-9
0.078, 1.921e-9
0.079, 1.927e-9
0.080, 1.932e-9
0.081, 1.937e-9
0.082, 1.942e-9
0.083, 1.948e-9
0.084, 1.955e-9
0.085, 1.960e-9
0.086, 1.966e-9
0.087, 1.971e-9
0.088, 1.977e-9
0.089, 1.983e-9
0.090, 1.988e-9
0.091, 1.994e-9
0.092, 2.000e-9
0.093, 2.006e-9
0.094, 2.012e-9
0.095, 2.018e-9
0.096, 2.025e-9
0.097, 2.032e-9
0.098, 2.038e-9
0.099, 2.045e-9
0.100, 2.052e-9
0.101, 2.060e-9
0.102, 2.071e-9
0.103, 2.083e-9
0.104, 2.087e-9
0.105, 2.090e-9
0.106, 2.094e-9
0.107, 2.101e-9
0.108, 2.109e-9
0.109, 2.114e-9
0.110, 2.118e-9
0.111, 2.123e-9
0.112, 2.127e-9
0.113, 2.132e-9
0.114, 2.139e-9
0.115, 2.145e-9
0.116, 2.149e-9
0.117, 2.154e-9
0.118, 2.158e-9
0.119, 2.161e-9
0.120, 2.167e-9
0.121, 2.173e-9
0.122, 2.180e-9
0.123, 2.186e-9
0.124, 2.192e-9
0.125, 2.197e-9
0.126, 2.205e-9
0.127, 2.211e-9
0.128, 2.218e-9
0.129, 2.224e-9
0.130, 2.231e-9
0.131, 2.237e-9
0.132, 2.244e-9
0.133, 2.250e-9
0.134, 2.257e-9
0.135, 2.265e-9
0.136, 2.271e-9
0.137, 2.276e-9
0.138, 2.283e-9
0.139, 2.290e-9
0.140, 2.297e-9
0.141, 2.303e-9
0.142, 2.310e-9
0.143, 2.316e-9
0.144, 2.323e-9
0.145, 2.330e-9
0.146, 2.336e-9
0.147, 2.343e-9
0.148, 2.350e-9
0.149, 2.358e-9
0.150, 2.365e-9
0.151, 2.373e-9
0.152, 2.382e-9
0.153, 2.388e-9
0.154, 2.393e-9
0.155, 2.400e-9
0.156, 2.407e-9
0.157, 2.414e-9
0.158, 2.422e-9
0.159, 2.431e-9
0.160, 2.439e-9
0.161, 2.446e-9
0.162, 2.453e-9
0.163, 2.462e-9
0.164, 2.467e-9
0.165, 2.475e-9
0.166, 2.482e-9
0.167, 2.488e-9
0.168, 2.496e-9
0.169, 2.504e-9
0.170, 2.511e-9
0.171, 2.519e-9
0.172, 2.527e-9
0.173, 2.534e-9
0.174, 2.543e-9
0.175, 2.550e-9
0.176, 2.558e-9
0.177, 2.565e-9
0.178, 2.572e-9
0.179, 2.580e-9
0.180, 2.586e-9
0.181, 2.594e-9
0.182, 2.602e-9
0.183, 2.608e-9
0.184, 2.616e-9
0.185, 2.624e-9
0.186, 2.632e-9
0.187, 2.638e-9
0.188, 2.646e-9
0.189, 2.653e-9
0.190, 2.660e-9
0.191, 2.667e-9
0.192, 2.675e-9
0.193, 2.682e-9
0.194, 2.689e-9
0.195, 2.696e-9
0.196, 2.705e-9
0.197, 2.712e-9
0.198, 2.720e-9
0.199, 2.727e-9
0.200, 2.737e-9
0.201, 2.743e-9
0.202, 2.748e-9
0.203, 2.755e-9
0.204, 2.764e-9
0.205, 2.767e-9
0.206, 2.775e-9
0.207, 2.782e-9
0.208, 2.789e-9
0.209, 2.797e-9
0.210, 2.805e-9
0.211, 2.811e-9
0.212, 2.816e-9
0.213, 2.823e-9
0.214, 2.831e-9
0.215, 2.838e-9
0.216, 2.845e-9
0.217, 2.852e-9
0.218, 2.858e-9
0.219, 2.866e-9
0.220, 2.873e-9
0.221, 2.879e-9
0.222, 2.885e-9
0.223, 2.893e-9
0.224, 2.899e-9
0.225, 2.906e-9
0.226, 2.914e-9
0.227, 2.922e-9
0.228, 2.929e-9
0.229, 2.935e-9
0.230, 2.943e-9
0.231, 2.949e-9
0.232, 2.957e-9
0.233, 2.964e-9
0.234, 2.969e-9
0.235, 2.976e-9
0.236, 2.983e-9
0.237, 2.990e-9
0.238, 2.997e-9
0.239, 3.003e-9
0.240, 3.010e-9
0.241, 3.018e-9
0.242, 3.024e-9
0.243, 3.031e-9
0.244, 3.037e-9
0.245, 3.044e-9
0.246, 3.050e-9
0.247, 3.055e-9
0.248, 3.063e-9
0.249, 3.069e-9
0.250, 3.076e-9
0.251, 3.081e-9
0.252, 3.089e-9
0.253, 3.095e-9
0.254, 3.101e-9
0.255, 3.107e-9
0.256, 3.113e-9
0.257, 3.119e-9
0.258, 3.125e-9
0.259, 3.132e-9
0.260, 3.137e-9
0.261, 3.144e-9
0.262, 3.151e-9
0.263, 3.157e-9
0.264, 3.163e-9
0.265, 3.169e-9
0.266, 3.174e-9
0.267, 3.181e-9
0.268, 3.188e-9
0.269, 3.192e-9
0.270, 3.199e-9
0.271, 3.205e-9
0.272, 3.211e-9
0.273, 3.217e-9
0.274, 3.223e-9
0.275, 3.230e-9
0.276, 3.236e-9
0.277, 3.241e-9
0.278, 3.248e-9
0.279, 3.253e-9
0.280, 3.259e-9
0.281, 3.265e-9
0.282, 3.271e-9
0.283, 3.277e-9
0.284, 3.282e-9
0.285, 3.288e-9
0.286, 3.294e-9
0.287, 3.299e-9
0.288, 3.306e-9
0.289, 3.313e-9
0.290, 3.318e-9
0.291, 3.323e-9
0.292, 3.329e-9
0.293, 3.335e-9
0.294, 3.341e-9
0.295, 3.346e-9
0.296, 3.352e-9
0.297, 3.359e-9
0.298, 3.363e-9
0.299, 3.369e-9
0.300, 3.375e-9
0.301, 3.381e-9
0.302, 3.386e-9
0.303, 3.391e-9
0.304, 3.396e-9
0.305, 3.403e-9
0.306, 3.409e-9
0.307, 3.417e-9
0.308, 3.425e-9
0.309, 3.429e-9
0.310, 3.434e-9
0.311, 3.439e-9
0.312, 3.444e-9
0.313, 3.449e-9
0.314, 3.455e-9
0.315, 3.460e-9
0.316, 3.465e-9
0.317, 3.470e-9
0.318, 3.476e-9
0.319, 3.482e-9
0.320, 3.486e-9
0.321, 3.491e-9
0.322, 3.498e-9
0.323, 3.503e-9
0.324, 3.507e-9
0.325, 3.512e-9
0.326, 3.518e-9
0.327, 3.524e-9
0.328, 3.530e-9
0.329, 3.535e-9
0.330, 3.540e-9
0.331, 3.546e-9
0.332, 3.552e-9
0.333, 3.556e-9
0.334, 3.561e-9
0.335, 3.566e-9
0.336, 3.572e-9
0.337, 3.578e-9
0.338, 3.583e-9
0.339, 3.588e-9
0.340, 3.593e-9
0.341, 3.598e-9
0.342, 3.603e-9
0.343, 3.608e-9
0.344, 3.615e-9
0.345, 3.620e-9
0.346, 3.623e-9
0.347, 3.629e-9
0.348, 3.636e-9
0.349, 3.640e-9
0.350, 3.645e-9
0.351, 3.650e-9
0.352, 3.656e-9
0.353, 3.662e-9
0.354, 3.667e-9
0.355, 3.672e-9
0.356, 3.677e-9
0.357, 3.682e-9
0.358, 3.688e-9
0.359, 3.692e-9
0.360, 3.698e-9
0.361, 3.704e-9
0.362, 3.708e-9
0.363, 3.714e-9
0.364, 3.720e-9
0.365, 3.726e-9
0.366, 3.732e-9
0.367, 3.738e-9
0.368, 3.742e-9
0.369, 3.748e-9
0.370, 3.753e-9
0.371, 3.758e-9
0.372, 3.763e-9
0.373, 3.769e-9
0.374, 3.775e-9
0.375, 3.779e-9
0.376, 3.785e-9
0.377, 3.791e-9
0.378, 3.796e-9
0.379, 3.802e-9
0.380, 3.807e-9
0.381, 3.812e-9
0.382, 3.819e-9
0.383, 3.823e-9
0.384, 3.829e-9
0.385, 3.835e-9
0.386, 3.840e-9
0.387, 3.845e-9
0.388, 3.851e-9
0.389, 3.858e-9
0.390, 3.863e-9
0.391, 3.869e-9
0.392, 3.874e-9
0.393, 3.880e-9
0.394, 3.885e-9
0.395, 3.890e-9
0.396, 3.897e-9
0.397, 3.902e-9
0.398, 3.910e-9
0.399, 3.917e-9
0.400, 3.921e-9
0.401, 3.927e-9
0.402, 3.933e-9
0.403, 3.939e-9
0.404, 3.945e-9
0.405, 3.951e-9
0.406, 3.957e-9
0.407, 3.962e-9
0.408, 3.968e-9
0.409, 3.974e-9
0.410, 3.973e-9
0.411, 3.981e-9
0.412, 3.989e-9
0.413, 3.995e-9
0.414, 4.003e-9
0.415, 4.011e-9
0.416, 4.018e-9
0.417, 4.024e-9
0.418, 4.031e-9
0.419, 4.036e-9
0.420, 4.041e-9
0.421, 4.047e-9
0.422, 4.055e-9
0.423, 4.061e-9
0.424, 4.067e-9
0.425, 4.074e-9
0.426, 4.079e-9
0.427, 4.086e-9
0.428, 4.092e-9
0.429, 4.099e-9
0.430, 4.105e-9
0.431, 4.111e-9
0.432, 4.116e-9
0.433, 4.121e-9
0.434, 4.128e-9
0.435, 4.134e-9
0.436, 4.139e-9
0.437, 4.146e-9
0.438, 4.151e-9
0.439, 4.156e-9
0.440, 4.164e-9
0.441, 4.170e-9
0.442, 4.176e-9
0.443, 4.183e-9
0.444, 4.188e-9
0.445, 4.193e-9
0.446, 4.198e-9
0.447, 4.204e-9
0.448, 4.210e-9
0.449, 4.215e-9
0.450, 4.222e-9
0.451, 4.227e-9
0.452, 4.234e-9
0.453, 4.240e-9
0.454, 4.246e-9
0.455, 4.251e-9
0.456, 4.257e-9
0.457, 4.264e-9
0.458, 4.268e-9
0.459, 4.274e-9
0.460, 4.281e-9
0.461, 4.287e-9
0.462, 4.293e-9
0.463, 4.299e-9
0.464, 4.305e-9
0.465, 4.312e-9
0.466, 4.319e-9
0.467, 4.325e-9
0.468, 4.332e-9
0.469, 4.338e-9
0.470, 4.345e-9
0.471, 4.351e-9
0.472, 4.359e-9
0.473, 4.365e-9
0.474, 4.371e-9
0.475, 4.378e-9
0.476, 4.384e-9
0.477, 4.390e-9
0.478, 4.397e-9
0.479, 4.403e-9
0.480, 4.412e-9
0.481, 4.420e-9
0.482, 4.426e-9
0.483, 4.433e-9
0.484, 4.439e-9
0.485, 4.445e-9
0.486, 4.453e-9
0.487, 4.459e-9
0.488, 4.467e-9
0.489, 4.474e-9
0.490, 4.480e-9
0.491, 4.488e-9
0.492, 4.495e-9
0.493, 4.504e-9
0.494, 4.513e-9
0.495, 4.520e-9
0.496, 4.526e-9
0.497, 4.534e-9
0.498, 4.542e-9
0.499, 4.550e-9
0.500, 4.511e-9
0.499, 4.324e-9
0.498, 4.202e-9
0.497, 4.123e-9
0.496, 4.056e-9
0.495, 3.996e-9
0.494, 3.942e-9
0.493, 3.888e-9
0.492, 3.844e-9
0.491, 3.799e-9
0.490, 3.753e-9
0.489, 3.712e-9
0.488, 3.669e-9
0.487, 3.629e-9
0.486, 3.592e-9
0.485, 3.554e-9
0.484, 3.519e-9
0.483, 3.486e-9
0.482, 3.452e-9
0.481, 3.418e-9
0.480, 3.386e-9
0.479, 3.354e-9
0.478, 3.323e-9
0.477, 3.293e-9
0.476, 3.263e-9
0.475, 3.233e-9
0.474, 3.206e-9
0.473, 3.179e-9
0.472, 3.151e-9
0.471, 3.123e-9
0.470, 3.097e-9
0.469, 3.070e-9
0.468, 3.043e-9
0.467, 3.018e-9
0.466, 2.994e-9
0.465, 2.968e-9
0.464, 2.944e-9
0.463, 2.921e-9
0.462, 2.897e-9
0.461, 2.874e-9
0.460, 2.852e-9
0.459, 2.829e-9
0.458, 2.806e-9
0.457, 2.784e-9
0.456, 2.762e-9
0.455, 2.740e-9
0.454, 2.718e-9
0.453, 2.697e-9
0.452, 2.677e-9
0.451, 2.656e-9
0.450, 2.635e-9
0.449, 2.614e-9
0.448, 2.594e-9
0.447, 2.574e-9
0.446, 2.554e-9
0.445, 2.534e-9
0.444, 2.516e-9
0.443, 2.496e-9
0.442, 2.476e-9
0.441, 2.457e-9
0.440, 2.439e-9
0.439, 2.420e-9
0.438, 2.402e-9
0.437, 2.383e-9
0.436, 2.365e-9
0.435, 2.347e-9
0.434, 2.328e-9
0.433, 2.310e-9
0.432, 2.293e-9
0.431, 2.276e-9
0.430, 2.258e-9
0.429, 2.240e-9
0.428, 2.223e-9
0.427, 2.205e-9
0.426, 2.188e-9
0.425, 2.172e-9
0.424, 2.154e-9
0.423, 2.137e-9
0.422, 2.123e-9
0.421, 2.106e-9
0.420, 2.088e-9
0.419, 2.072e-9
0.418, 2.057e-9
0.417, 2.041e-9
0.416, 2.024e-9
0.415, 2.007e-9
0.414, 1.992e-9
0.413, 1.976e-9
0.412, 1.961e-9
0.411, 1.945e-9
0.410, 1.932e-9
0.409, 1.922e-9
0.408, 1.903e-9
0.407, 1.886e-9
0.406, 1.871e-9
0.405, 1.855e-9
0.404, 1.840e-9
0.403, 1.824e-9
0.402, 1.809e-9
0.401, 1.794e-9
0.400, 1.781e-9
0.399, 1.765e-9
0.398, 1.750e-9
0.397, 1.735e-9
0.396, 1.721e-9
0.395, 1.707e-9
0.394, 1.692e-9
0.393, 1.677e-9
0.392, 1.663e-9
0.391, 1.648e-9
0.390, 1.634e-9
0.389, 1.620e-9
0.388, 1.606e-9
0.387, 1.593e-9
0.386, 1.579e-9
0.385, 1.565e-9
0.384, 1.552e-9
0.383, 1.537e-9
0.382, 1.524e-9
0.381, 1.511e-9
0.380, 1.497e-9
0.379, 1.484e-9
0.378, 1.471e-9
0.377, 1.458e-9
0.376, 1.444e-9
0.375, 1.431e-9
0.374, 1.418e-9
0.373, 1.405e-9
0.372, 1.390e-9
0.371, 1.377e-9
0.370, 1.364e-9
0.369, 1.352e-9
0.368, 1.338e-9
0.367, 1.324e-9
0.366, 1.310e-9
0.365, 1.296e-9
0.364, 1.283e-9
0.363, 1.269e-9
0.362, 1.256e-9
0.361, 1.243e-9
0.360, 1.230e-9
0.359, 1.217e-9
0.358, 1.206e-9
0.357, 1.194e-9
0.356, 1.182e-9
0.355, 1.170e-9
0.354, 1.158e-9
0.353, 1.145e-9
0.352, 1.133e-9
0.351, 1.120e-9
0.350, 1.107e-9
0.349, 1.094e-9
0.348, 1.082e-9
0.347, 1.070e-9
0.346, 1.057e-9
0.345, 1.045e-9
0.344, 1.032e-9
0.343, 1.021e-9
0.342, 1.010e-9
0.341, 9.979e-10
0.340, 9.859e-10
0.339, 9.726e-10
0.338, 9.570e-10
0.337, 9.453e-10
0.336, 9.365e-10
0.335, 9.249e-10
0.334, 9.139e-10
0.333, 9.036e-10
0.332, 8.929e-10
0.331, 8.814e-10
0.330, 8.697e-10
0.329, 8.599e-10
0.328, 8.492e-10
0.327, 8.372e-10
0.326, 8.258e-10
0.325, 8.149e-10
0.324, 8.042e-10
0.323, 7.936e-10
0.322, 7.813e-10
0.321, 7.699e-10
0.320, 7.580e-10
0.319, 7.452e-10
0.318, 7.343e-10
0.317, 7.229e-10
0.316, 7.123e-10
0.315, 7.008e-10
0.314, 6.896e-10
0.313, 6.777e-10
0.312, 6.667e-10
0.311, 6.567e-10
0.310, 6.479e-10
0.309, 6.378e-10
0.308, 6.295e-10
0.307, 6.147e-10
0.306, 6.038e-10
0.305, 5.917e-10
0.304, 5.805e-10
0.303, 5.727e-10
0.302, 5.646e-10
0.301, 5.537e-10
0.300, 5.421e-10
0.299, 5.324e-10
0.298, 5.224e-10
0.297, 5.135e-10
0.296, 5.033e-10
0.295, 4.922e-10
0.294, 4.842e-10
0.293, 4.734e-10
0.292, 4.634e-10
0.291, 4.533e-10
0.290, 4.444e-10
0.289, 4.350e-10
0.288, 4.248e-10
0.287, 4.144e-10
0.286, 4.049e-10
0.285, 3.959e-10
0.284, 3.865e-10
0.283, 3.763e-10
0.282, 3.673e-10
0.281, 3.584e-10
0.280, 3.503e-10
0.279, 3.412e-10
0.278, 3.315e-10
0.277, 3.219e-10
0.276, 3.127e-10
0.275, 3.030e-10
0.274, 2.948e-10
0.273, 2.868e-10
0.272, 2.799e-10
0.271, 2.720e-10
0.270, 2.616e-10
0.269, 2.499e-10
0.268, 2.399e-10
0.267, 2.307e-10
0.266, 2.230e-10
0.265, 2.159e-10
0.264, 2.069e-10
0.263, 1.977e-10
0.262, 1.889e-10
0.261, 1.805e-10
0.260, 1.730e-10
0.259, 1.654e-10
0.258, 1.565e-10
0.257, 1.484e-10
0.256, 1.412e-10
0.255, 1.328e-10
0.254, 1.240e-10
0.253, 1.168e-10
0.252, 1.096e-10
0.251, 1.018e-10
0.250, 9.375e-11
0.249, 8.555e-11
0.248, 7.935e-11
0.247, 7.258e-11
0.246, 6.735e-11
0.245, 6.068e-11
0.244, 5.342e-11
0.243, 4.537e-11
0.242, 3.727e-11
0.241, 2.987e-11
0.240, 2.358e-11
0.239, 1.629e-11
0.238, 8.933e-12
0.237, 2.889e-12
0.236, -3.681e-12
0.235, -1.108e-11
0.234, -1.821e-11
0.233, -2.477e-11
0.232, -3.251e-11
0.231, -3.865e-11
0.230, -4.433e-11
0.229, -5.097e-11
0.228, -5.821e-11
0.227, -6.241e-11
0.226, -6.919e-11
0.225, -7.592e-11
0.224, -8.247e-11
0.223, -8.783e-11
0.222, -9.277e-11
0.221, -9.918e-11
0.220, -1.059e-10
0.219, -1.114e-10
0.218, -1.173e-10
0.217, -1.232e-10
0.216, -1.292e-10
0.215, -1.345e-10
0.214, -1.397e-10
0.213, -1.460e-10
0.212, -1.512e-10
0.211, -1.564e-10
0.210, -1.622e-10
0.209, -1.679e-10
0.208, -1.733e-10
0.207, -1.780e-10
0.206, -1.838e-10
0.205, -1.865e-10
0.204, -1.899e-10
0.203, -1.971e-10
0.202, -2.027e-10
0.201, -2.077e-10
0.200, -2.124e-10
0.199, -2.179e-10
0.198, -2.231e-10
0.197, -2.282e-10
0.196, -2.330e-10
0.195, -2.373e-10
0.194, -2.419e-10
0.193, -2.456e-10
0.192, -2.503e-10
0.191, -2.560e-10
0.190, -2.609e-10
0.189, -2.653e-10
0.188, -2.687e-10
0.187, -2.731e-10
0.186, -2.774e-10
0.185, -2.813e-10
0.184, -2.862e-10
0.183, -2.923e-10
0.182, -2.957e-10
0.181, -3.024e-10
0.180, -3.084e-10
0.179, -3.123e-10
0.178, -3.178e-10
0.177, -3.231e-10
0.176, -3.272e-10
0.175, -3.324e-10
0.174, -3.371e-10
0.173, -3.433e-10
0.172, -3.466e-10
0.171, -3.499e-10
0.170, -3.535e-10
0.169, -3.586e-10
0.168, -3.642e-10
0.167, -3.694e-10
0.166, -3.750e-10
0.165, -3.806e-10
0.164, -3.845e-10
0.163, -3.869e-10
0.162, -3.911e-10
0.161, -3.951e-10
0.160, -3.991e-10
0.159, -4.026e-10
0.158, -4.067e-10
0.157, -4.098e-10
0.156, -4.143e-10
0.155, -4.188e-10
0.154, -4.220e-10
0.153, -4.259e-10
0.152, -4.314e-10
0.151, -4.350e-10
0.150, -4.374e-10
0.149, -4.420e-10
0.148, -4.472e-10
0.147, -4.532e-10
0.146, -4.577e-10
0.145, -4.635e-10
0.144, -4.682e-10
0.143, -4.732e-10
0.142, -4.772e-10
0.141, -4.801e-10
0.140, -4.837e-10
0.139, -4.879e-10
0.138, -4.913e-10
0.137, -4.955e-10
0.136, -5.005e-10
0.135, -5.078e-10
0.134, -5.120e-10
0.133, -5.168e-10
0.132, -5.219e-10
0.131, -5.268e-10
0.130, -5.313e-10
0.129, -5.351e-10
0.128, -5.397e-10
0.127, -5.452e-10
0.126, -5.491e-10
0.125, -5.511e-10
0.124, -5.556e-10
0.123, -5.654e-10
0.122, -5.724e-10
0.121, -5.761e-10
0.120, -5.803e-10
0.119, -5.846e-10
0.118, -5.882e-10
0.117, -5.933e-10
0.116, -5.973e-10
0.115, -5.983e-10
0.114, -5.970e-10
0.113, -6.016e-10
0.112, -6.120e-10
0.111, -6.197e-10
0.110, -6.271e-10
0.109, -6.333e-10
0.108, -6.379e-10
0.107, -6.428e-10
0.106, -6.488e-10
0.105, -6.547e-10
0.104, -6.603e-10
0.103, -6.634e-10
0.102, -6.715e-10
0.101, -6.742e-10
0.100, -6.781e-10
0.099, -6.804e-10
0.098, -6.849e-10
0.097, -6.894e-10
0.096, -6.923e-10
0.095, -6.965e-10
0.094, -7.027e-10
0.093, -7.062e-10
0.092, -7.111e-10
0.091, -7.145e-10
0.090, -7.185e-10
0.089, -7.225e-10
0.088, -7.277e-10
0.087, -7.326e-10
0.086, -7.382e-10
0.085, -7.436e-10
0.084, -7.499e-10
0.083, -7.561e-10
0.082, -7.610e-10
0.081, -7.664e-10
0.080, -7.721e-10
0.079, -7.782e-10
0.078, -7.834e-10
0.077, -7.873e-10
0.076, -7.915e-10
0.075, -7.966e-10
0.074, -8.013e-10
0.073, -8.070e-10
0.072, -8.123e-10
0.071, -8.170e-10
0.070, -8.217e-10
0.069, -8.277e-10
0.068, -8.336e-10
0.067, -8.384e-10
0.066, -8.437e-10
0.065, -8.498e-10
0.064, -8.542e-10
0.063, -8.603e-10
0.062, -8.657e-10
0.061, -8.706e-10
0.060, -8.766e-10
0.059, -8.827e-10
0.058, -8.875e-10
0.057, -8.923e-10
0.056, -8.992e-10
0.055, -9.067e-10
0.054, -9.107e-10
0.053, -9.163e-10
0.052, -9.218e-10
0.051, -9.277e-10
0.050, -9.327e-10
0.049, -9.379e-10
0.048, -9.433e-10
0.047, -9.498e-10
0.046, -9.548e-10
0.045, -9.609e-10
0.044, -9.669e-10
0.043, -9.736e-10
0.042, -9.800e-10
0.041, -9.841e-10
0.040, -9.900e-10
0.039, -9.967e-10
0.038, -1.002e-9
0.037, -1.008e-9
0.036, -1.014e-9
0.035, -1.019e-9
0.034, -1.026e-9
0.033, -1.033e-9
0.032, -1.038e-9
0.031, -1.044e-9
0.030, -1.050e-9
0.029, -1.056e-9
0.028, -1.061e-9
0.027, -1.067e-9
0.026, -1.073e-9
0.025, -1.079e-9
0.024, -1.084e-9
0.023, -1.091e-9
0.022, -1.097e-9
0.021, -1.103e-9
0.020, -1.109e-9
0.019, -1.115e-9
0.018, -1.122e-9
0.017, -1.127e-9
0.016, -1.133e-9
0.015, -1.140e-9
0.014, -1.145e-9
0.013, -1.151e-9
0.012, -1.157e-9
0.011, -1.163e-9
0.010, -1.171e-9
0.009, -1.176e-9
0.008, -1.183e-9
0.007, -1.189e-9
0.006, -1.194e-9
0.005, -1.200e-9
0.004, -1.207e-9
0.003, -1.213e-9
0.002, -1.220e-9
0.001, -1.226e-9
-0.000, -1.228e-9
-0.001, -1.234e-9
-0.002, -1.242e-9
-0.003, -1.248e-9
-0.004, -1.255e-9
-0.005, -1.259e-9
-0.006, -1.267e-9
-0.007, -1.276e-9
-0.008, -1.284e-9
-0.009, -1.291e-9
-0.010, -1.295e-9
-0.011, -1.303e-9
-0.012, -1.311e-9
-0.013, -1.318e-9
-0.014, -1.324e-9
-0.015, -1.330e-9
-0.016, -1.336e-9
-0.017, -1.342e-9
-0.018, -1.348e-9
-0.019, -1.354e-9
-0.020, -1.364e-9
-0.021, -1.372e-9
-0.022, -1.379e-9
-0.023, -1.384e-9
-0.024, -1.392e-9
-0.025, -1.399e-9
-0.026, -1.403e-9
-0.027, -1.411e-9
-0.028, -1.417e-9
-0.029, -1.424e-9
-0.030, -1.433e-9
-0.031, -1.441e-9
-0.032, -1.450e-9
-0.033, -1.456e-9
-0.034, -1.464e-9
-0.035, -1.475e-9
-0.036, -1.484e-9
-0.037, -1.492e-9
-0.038, -1.500e-9
-0.039, -1.505e-9
-0.040, -1.511e-9
-0.041, -1.519e-9
-0.042, -1.525e-9
-0.043, -1.534e-9
-0.044, -1.544e-9
-0.045, -1.551e-9
-0.046, -1.555e-9
-0.047, -1.561e-9
-0.048, -1.562e-9
-0.049, -1.560e-9
-0.050, -1.562e-9
-0.051, -1.567e-9
-0.052, -1.572e-9
-0.053, -1.581e-9
-0.054, -1.587e-9
-0.055, -1.595e-9
-0.056, -1.605e-9
-0.057, -1.610e-9
-0.058, -1.608e-9
-0.059, -1.612e-9
-0.060, -1.617e-9
-0.061, -1.621e-9
-0.062, -1.625e-9
-0.063, -1.630e-9
-0.064, -1.635e-9
-0.065, -1.640e-9
-0.066, -1.646e-9
-0.067, -1.653e-9
-0.068, -1.660e-9
-0.069, -1.666e-9
-0.070, -1.673e-9
-0.071, -1.679e-9
-0.072, -1.686e-9
-0.073, -1.692e-9
-0.074, -1.697e-9
-0.075, -1.704e-9
-0.076, -1.711e-9
-0.077, -1.724e-9
-0.078, -1.735e-9
-0.079, -1.731e-9
-0.080, -1.732e-9
-0.081, -1.737e-9
-0.082, -1.742e-9
-0.083, -1.748e-9
-0.084, -1.756e-9
-0.085, -1.763e-9
-0.086, -1.769e-9
-0.087, -1.775e-9
-0.088, -1.782e-9
-0.089, -1.789e-9
-0.090, -1.793e-9
-0.091, -1.800e-9
-0.092, -1.807e-9
-0.093, -1.812e-9
-0.094, -1.817e-9
-0.095, -1.823e-9
-0.096, -1.828e-9
-0.097, -1.834e-9
-0.098, -1.841e-9
-0.099, -1.848e-9
-0.100, -1.852e-9
-0.101, -1.859e-9
-0.102, -1.865e-9
-0.103, -1.874e-9
-0.104, -1.879e-9
-0.105, -1.884e-9
-0.106, -1.889e-9
-0.107, -1.894e-9
-0.108, -1.899e-9
-0.109, -1.905e-9
-0.110, -1.912e-9
-0.111, -1.916e-9
-0.112, -1.921e-9
-0.113, -1.928e-9
-0.114, -1.934e-9
-0.115, -1.940e-9
-0.116, -1.945e-9
-0.117, -1.951e-9
-0.118, -1.957e-9
-0.119, -1.962e-9
-0.120, -1.967e-9
-0.121, -1.973e-9
-0.122, -1.979e-9
-0.123, -1.985e-9
-0.124, -1.991e-9
-0.125, -1.995e-9
-0.126, -2.000e-9
-0.127, -2.006e-9
-0.128, -2.013e-9
-0.129, -2.031e-9
-0.130, -2.026e-9
-0.131, -2.029e-9
-0.132, -2.034e-9
-0.133, -2.040e-9
-0.134, -2.045e-9
-0.135, -2.051e-9
-0.136, -2.056e-9
-0.137, -2.062e-9
-0.138, -2.069e-9
-0.139, -2.079e-9
-0.140, -2.079e-9
-0.141, -2.083e-9
-0.142, -2.088e-9
-0.143, -2.094e-9
-0.144, -2.098e-9
-0.145, -2.104e-9
-0.146, -2.110e-9
-0.147, -2.116e-9
-0.148, -2.121e-9
-0.149, -2.127e-9
-0.150, -2.131e-9
-0.151, -2.137e-9
-0.152, -2.142e-9
-0.153, -2.148e-9
-0.154, -2.151e-9
-0.155, -2.158e-9
-0.156, -2.164e-9
-0.157, -2.169e-9
-0.158, -2.176e-9
-0.159, -2.181e-9
-0.160, -2.185e-9
-0.161, -2.193e-9
-0.162, -2.201e-9
-0.163, -2.202e-9
-0.164, -2.205e-9
-0.165, -2.210e-9
-0.166, -2.216e-9
-0.167, -2.221e-9
-0.168, -2.226e-9
-0.169, -2.232e-9
-0.170, -2.240e-9
-0.171, -2.251e-9
-0.172, -2.251e-9
-0.173, -2.255e-9
-0.174, -2.260e-9
-0.175, -2.267e-9
-0.176, -2.272e-9
-0.177, -2.277e-9
-0.178, -2.282e-9
-0.179, -2.288e-9
-0.180, -2.294e-9
-0.181, -2.298e-9
-0.182, -2.304e-9
-0.183, -2.307e-9
-0.184, -2.312e-9
-0.185, -2.318e-9
-0.186, -2.323e-9
-0.187, -2.329e-9
-0.188, -2.336e-9
-0.189, -2.343e-9
-0.190, -2.346e-9
-0.191, -2.352e-9
-0.192, -2.358e-9
-0.193, -2.364e-9
-0.194, -2.367e-9
-0.195, -2.373e-9
-0.196, -2.378e-9
-0.197, -2.384e-9
-0.198, -2.389e-9
-0.199, -2.394e-9
-0.200, -2.400e-9
-0.201, -2.406e-9
-0.202, -2.410e-9
-0.203, -2.416e-9
-0.204, -2.421e-9
-0.205, -2.422e-9
-0.206, -2.427e-9
-0.207, -2.433e-9
-0.208, -2.439e-9
-0.209, -2.446e-9
-0.210, -2.452e-9
-0.211, -2.458e-9
-0.212, -2.462e-9
-0.213, -2.468e-9
-0.214, -2.472e-9
-0.215, -2.477e-9
-0.216, -2.482e-9
-0.217, -2.485e-9
-0.218, -2.489e-9
-0.219, -2.495e-9
-0.220, -2.501e-9
-0.221, -2.505e-9
-0.222, -2.511e-9
-0.223, -2.518e-9
-0.224, -2.523e-9
-0.225, -2.527e-9
-0.226, -2.532e-9
-0.227, -2.536e-9
-0.228, -2.542e-9
-0.229, -2.547e-9
-0.230, -2.552e-9
-0.231, -2.557e-9
-0.232, -2.562e-9
-0.233, -2.567e-9
-0.234, -2.572e-9
-0.235, -2.577e-9
-0.236, -2.583e-9
-0.237, -2.588e-9
-0.238, -2.592e-9
-0.239, -2.597e-9
-0.240, -2.602e-9
-0.241, -2.608e-9
-0.242, -2.613e-9
-0.243, -2.618e-9
-0.244, -2.623e-9
-0.245, -2.629e-9
-0.246, -2.633e-9
-0.247, -2.638e-9
-0.248, -2.643e-9
-0.249, -2.648e-9
-0.250, -2.654e-9
-0.251, -2.659e-9
-0.252, -2.664e-9
-0.253, -2.669e-9
-0.254, -2.675e-9
-0.255, -2.679e-9
-0.256, -2.683e-9
-0.257, -2.688e-9
-0.258, -2.693e-9
-0.259, -2.698e-9
-0.260, -2.703e-9
-0.261, -2.708e-9
-0.262, -2.713e-9
-0.263, -2.718e-9
-0.264, -2.723e-9
-0.265, -2.728e-9
-0.266, -2.733e-9
-0.267, -2.738e-9
-0.268, -2.743e-9
-0.269, -2.747e-9
-0.270, -2.753e-9
-0.271, -2.759e-9
-0.272, -2.763e-9
-0.273, -2.767e-9
-0.274, -2.773e-9
-0.275, -2.779e-9
-0.276, -2.785e-9
-0.277, -2.789e-9
-0.278, -2.795e-9
-0.279, -2.799e-9
-0.280, -2.805e-9
-0.281, -2.810e-9
-0.282, -2.815e-9
-0.283, -2.819e-9
-0.284, -2.824e-9
-0.285, -2.829e-9
-0.286, -2.835e-9
-0.287, -2.841e-9
-0.288, -2.845e-9
-0.289, -2.851e-9
-0.290, -2.856e-9
-0.291, -2.860e-9
-0.292, -2.866e-9
-0.293, -2.871e-9
-0.294, -2.876e-9
-0.295, -2.882e-9
-0.296, -2.891e-9
-0.297, -2.897e-9
-0.298, -2.901e-9
-0.299, -2.907e-9
-0.300, -2.913e-9
-0.301, -2.917e-9
-0.302, -2.922e-9
-0.303, -2.926e-9
-0.304, -2.931e-9
-0.305, -2.936e-9
-0.306, -2.941e-9
-0.307, -2.949e-9
-0.308, -2.957e-9
-0.309, -2.959e-9
-0.310, -2.963e-9
-0.311, -2.967e-9
-0.312, -2.973e-9
-0.313, -2.977e-9
-0.314, -2.983e-9
-0.315, -2.987e-9
-0.316, -2.992e-9
-0.317, -2.997e-9
-0.318, -3.004e-9
-0.319, -3.009e-9
-0.320, -3.013e-9
-0.321, -3.018e-9
-0.322, -3.023e-9
-0.323, -3.027e-9
-0.324, -3.032e-9
-0.325, -3.038e-9
-0.326, -3.043e-9
-0.327, -3.049e-9
-0.328, -3.054e-9
-0.329, -3.059e-9
-0.330, -3.063e-9
-0.331, -3.069e-9
-0.332, -3.074e-9
-0.333, -3.078e-9
-0.334, -3.084e-9
-0.335, -3.089e-9
-0.336, -3.093e-9
-0.337, -3.099e-9
-0.338, -3.104e-9
-0.339, -3.110e-9
-0.340, -3.115e-9
-0.341, -3.120e-9
-0.342, -3.125e-9
-0.343, -3.129e-9
-0.344, -3.134e-9
-0.345, -3.140e-9
-0.346, -3.144e-9
-0.347, -3.150e-9
-0.348, -3.155e-9
-0.349, -3.160e-9
-0.350, -3.167e-9
-0.351, -3.172e-9
-0.352, -3.177e-9
-0.353, -3.183e-9
-0.354, -3.189e-9
-0.355, -3.194e-9
-0.356, -3.199e-9
-0.357, -3.203e-9
-0.358, -3.209e-9
-0.359, -3.214e-9
-0.360, -3.220e-9
-0.361, -3.224e-9
-0.362, -3.229e-9
-0.363, -3.234e-9
-0.364, -3.240e-9
-0.365, -3.246e-9
-0.366, -3.251e-9
-0.367, -3.256e-9
-0.368, -3.261e-9
-0.369, -3.267e-9
-0.370, -3.272e-9
-0.371, -3.276e-9
-0.372, -3.282e-9
-0.373, -3.288e-9
-0.374, -3.293e-9
-0.375, -3.298e-9
-0.376, -3.305e-9
-0.377, -3.310e-9
-0.378, -3.315e-9
-0.379, -3.321e-9
-0.380, -3.326e-9
-0.381, -3.332e-9
-0.382, -3.337e-9
-0.383, -3.343e-9
-0.384, -3.347e-9
-0.385, -3.353e-9
-0.386, -3.359e-9
-0.387, -3.365e-9
-0.388, -3.369e-9
-0.389, -3.375e-9
-0.390, -3.381e-9
-0.391, -3.387e-9
-0.392, -3.391e-9
-0.393, -3.397e-9
-0.394, -3.402e-9
-0.395, -3.409e-9
-0.396, -3.413e-9
-0.397, -3.417e-9
-0.398, -3.424e-9
-0.399, -3.430e-9
-0.400, -3.435e-9
-0.401, -3.440e-9
-0.402, -3.446e-9
-0.403, -3.453e-9
-0.404, -3.458e-9
-0.405, -3.464e-9
-0.406, -3.469e-9
-0.407, -3.475e-9
-0.408, -3.480e-9
-0.409, -3.486e-9
-0.410, -3.491e-9
-0.411, -3.496e-9
-0.412, -3.501e-9
-0.413, -3.507e-9
-0.414, -3.515e-9
-0.415, -3.520e-9
-0.416, -3.526e-9
-0.417, -3.531e-9
-0.418, -3.537e-9
-0.419, -3.543e-9
-0.420, -3.548e-9
-0.421, -3.555e-9
-0.422, -3.559e-9
-0.423, -3.565e-9
-0.424, -3.572e-9
-0.425, -3.577e-9
-0.426, -3.582e-9
-0.427, -3.589e-9
-0.428, -3.595e-9
-0.429, -3.602e-9
-0.430, -3.607e-9
-0.431, -3.614e-9
-0.432, -3.619e-9
-0.433, -3.625e-9
-0.434, -3.629e-9
-0.435, -3.635e-9
-0.436, -3.642e-9
-0.437, -3.648e-9
-0.438, -3.653e-9
-0.439, -3.658e-9
-0.440, -3.665e-9
-0.441, -3.671e-9
-0.442, -3.677e-9
-0.443, -3.684e-9
-0.444, -3.690e-9
-0.445, -3.696e-9
-0.446, -3.702e-9
-0.447, -3.707e-9
-0.448, -3.713e-9
-0.449, -3.720e-9
-0.450, -3.726e-9
-0.451, -3.732e-9
-0.452, -3.738e-9
-0.453, -3.744e-9
-0.454, -3.750e-9
-0.455, -3.756e-9
-0.456, -3.761e-9
-0.457, -3.768e-9
-0.458, -3.774e-9
-0.459, -3.781e-9
-0.460, -3.787e-9
-0.461, -3.793e-9
-0.462, -3.801e-9
-0.463, -3.808e-9
-0.464, -3.813e-9
-0.465, -3.820e-9
-0.466, -3.829e-9
-0.467, -3.836e-9
-0.468, -3.841e-9
-0.469, -3.848e-9
-0.470, -3.854e-9
-0.471, -3.859e-9
-0.472, -3.868e-9
-0.473, -3.874e-9
-0.474, -3.879e-9
-0.475, -3.887e-9
-0.476, -3.894e-9
-0.477, -3.899e-9
-0.478, -3.908e-9
-0.479, -3.914e-9
-0.480, -3.919e-9
-0.481, -3.926e-9
-0.482, -3.933e-9
-0.483, -3.940e-9
-0.484, -3.947e-9
-0.485, -3.953e-9
-0.486, -3.959e-9
-0.487, -3.966e-9
-0.488, -3.973e-9
-0.489, -3.980e-9
-0.490, -3.985e-9
-0.491, -3.993e-9
-0.492, -4.000e-9
-0.493, -4.007e-9
-0.494, -4.015e-9
-0.495, -4.021e-9
-0.496, -4.026e-9
-0.497, -4.035e-9
-0.498, -4.042e-9
-0.499, -4.048e-9
