Mar. 7, 2025   14:39:29
Cyclic Voltammetry
File: cv surface incubated 7.bin
Instrument Model:  CHI920C
Ref. Electrode: 
Header: 
Note: 

Init E (V) = -0.5
High E (V) = 0.5
Low E (V) = -0.5
Init P/N = P
Scan Rate (V/s) = 0.05
Segment = 2
Sample Interval (V) = 0.001
Quiet Time (sec) = 10
Sensitivity (A/V) = 1e-8

Results:

Channel 1:
Segment 1:

Segment 2:

Potential/V, Current/A

-0.500, -2.003e-9
-0.499, -1.912e-9
-0.498, -1.860e-9
-0.497, -1.829e-9
-0.496, -1.805e-9
-0.495, -1.782e-9
-0.494, -1.763e-9
-0.493, -1.743e-9
-0.492, -1.723e-9
-0.491, -1.706e-9
-0.490, -1.688e-9
-0.489, -1.672e-9
-0.488, -1.655e-9
-0.487, -1.639e-9
-0.486, -1.627e-9
-0.485, -1.612e-9
-0.484, -1.597e-9
-0.483, -1.585e-9
-0.482, -1.572e-9
-0.481, -1.556e-9
-0.480, -1.542e-9
-0.479, -1.529e-9
-0.478, -1.517e-9
-0.477, -1.503e-9
-0.476, -1.490e-9
-0.475, -1.478e-9
-0.474, -1.465e-9
-0.473, -1.454e-9
-0.472, -1.440e-9
-0.471, -1.428e-9
-0.470, -1.418e-9
-0.469, -1.406e-9
-0.468, -1.396e-9
-0.467, -1.385e-9
-0.466, -1.372e-9
-0.465, -1.360e-9
-0.464, -1.349e-9
-0.463, -1.337e-9
-0.462, -1.328e-9
-0.461, -1.316e-9
-0.460, -1.307e-9
-0.459, -1.296e-9
-0.458, -1.285e-9
-0.457, -1.276e-9
-0.456, -1.264e-9
-0.455, -1.251e-9
-0.454, -1.241e-9
-0.453, -1.232e-9
-0.452, -1.223e-9
-0.451, -1.212e-9
-0.450, -1.201e-9
-0.449, -1.190e-9
-0.448, -1.182e-9
-0.447, -1.172e-9
-0.446, -1.163e-9
-0.445, -1.154e-9
-0.444, -1.144e-9
-0.443, -1.135e-9
-0.442, -1.125e-9
-0.441, -1.114e-9
-0.440, -1.103e-9
-0.439, -1.092e-9
-0.438, -1.083e-9
-0.437, -1.074e-9
-0.436, -1.066e-9
-0.435, -1.058e-9
-0.434, -1.048e-9
-0.433, -1.039e-9
-0.432, -1.030e-9
-0.431, -1.021e-9
-0.430, -1.010e-9
-0.429, -9.999e-10
-0.428, -9.904e-10
-0.427, -9.822e-10
-0.426, -9.727e-10
-0.425, -9.648e-10
-0.424, -9.556e-10
-0.423, -9.473e-10
-0.422, -9.406e-10
-0.421, -9.307e-10
-0.420, -9.215e-10
-0.419, -9.133e-10
-0.418, -9.032e-10
-0.417, -8.941e-10
-0.416, -8.852e-10
-0.415, -8.760e-10
-0.414, -8.680e-10
-0.413, -8.593e-10
-0.412, -8.510e-10
-0.411, -8.420e-10
-0.410, -8.332e-10
-0.409, -8.245e-10
-0.408, -8.168e-10
-0.407, -8.081e-10
-0.406, -7.995e-10
-0.405, -7.915e-10
-0.404, -7.832e-10
-0.403, -7.752e-10
-0.402, -7.673e-10
-0.401, -7.584e-10
-0.400, -7.507e-10
-0.399, -7.427e-10
-0.398, -7.343e-10
-0.397, -7.262e-10
-0.396, -7.180e-10
-0.395, -7.098e-10
-0.394, -7.008e-10
-0.393, -6.933e-10
-0.392, -6.857e-10
-0.391, -6.789e-10
-0.390, -6.700e-10
-0.389, -6.603e-10
-0.388, -6.531e-10
-0.387, -6.460e-10
-0.386, -6.387e-10
-0.385, -6.299e-10
-0.384, -6.214e-10
-0.383, -6.149e-10
-0.382, -6.073e-10
-0.381, -5.988e-10
-0.380, -5.921e-10
-0.379, -5.834e-10
-0.378, -5.772e-10
-0.377, -5.702e-10
-0.376, -5.618e-10
-0.375, -5.531e-10
-0.374, -5.463e-10
-0.373, -5.394e-10
-0.372, -5.307e-10
-0.371, -5.229e-10
-0.370, -5.155e-10
-0.369, -5.073e-10
-0.368, -5.014e-10
-0.367, -4.929e-10
-0.366, -4.857e-10
-0.365, -4.776e-10
-0.364, -4.700e-10
-0.363, -4.635e-10
-0.362, -4.560e-10
-0.361, -4.490e-10
-0.360, -4.422e-10
-0.359, -4.340e-10
-0.358, -4.283e-10
-0.357, -4.209e-10
-0.356, -4.135e-10
-0.355, -4.070e-10
-0.354, -3.994e-10
-0.353, -3.923e-10
-0.352, -3.845e-10
-0.351, -3.781e-10
-0.350, -3.703e-10
-0.349, -3.637e-10
-0.348, -3.573e-10
-0.347, -3.500e-10
-0.346, -3.429e-10
-0.345, -3.360e-10
-0.344, -3.292e-10
-0.343, -3.218e-10
-0.342, -3.163e-10
-0.341, -3.087e-10
-0.340, -3.025e-10
-0.339, -2.957e-10
-0.338, -2.890e-10
-0.337, -2.814e-10
-0.336, -2.739e-10
-0.335, -2.679e-10
-0.334, -2.616e-10
-0.333, -2.559e-10
-0.332, -2.483e-10
-0.331, -2.406e-10
-0.330, -2.340e-10
-0.329, -2.288e-10
-0.328, -2.215e-10
-0.327, -2.145e-10
-0.326, -2.072e-10
-0.325, -2.018e-10
-0.324, -1.941e-10
-0.323, -1.868e-10
-0.322, -1.809e-10
-0.321, -1.749e-10
-0.320, -1.688e-10
-0.319, -1.617e-10
-0.318, -1.549e-10
-0.317, -1.493e-10
-0.316, -1.432e-10
-0.315, -1.353e-10
-0.314, -1.271e-10
-0.313, -1.220e-10
-0.312, -1.166e-10
-0.311, -1.107e-10
-0.310, -1.039e-10
-0.309, -9.703e-11
-0.308, -9.106e-11
-0.307, -7.971e-11
-0.306, -7.369e-11
-0.305, -6.984e-11
-0.304, -6.451e-11
-0.303, -5.951e-11
-0.302, -5.282e-11
-0.301, -4.594e-11
-0.300, -4.144e-11
-0.299, -3.396e-11
-0.298, -2.685e-11
-0.297, -2.103e-11
-0.296, -1.404e-11
-0.295, -9.237e-12
-0.294, -5.085e-12
-0.293, 2.285e-12
-0.292, 9.128e-12
-0.291, 1.471e-11
-0.290, 2.067e-11
-0.289, 2.624e-11
-0.288, 3.390e-11
-0.287, 4.003e-11
-0.286, 4.519e-11
-0.285, 5.056e-11
-0.284, 5.713e-11
-0.283, 6.237e-11
-0.282, 6.789e-11
-0.281, 7.312e-11
-0.280, 8.048e-11
-0.279, 8.667e-11
-0.278, 9.175e-11
-0.277, 9.793e-11
-0.276, 1.042e-10
-0.275, 1.102e-10
-0.274, 1.167e-10
-0.273, 1.220e-10
-0.272, 1.266e-10
-0.271, 1.332e-10
-0.270, 1.396e-10
-0.269, 1.457e-10
-0.268, 1.503e-10
-0.267, 1.562e-10
-0.266, 1.634e-10
-0.265, 1.671e-10
-0.264, 1.734e-10
-0.263, 1.799e-10
-0.262, 1.858e-10
-0.261, 1.924e-10
-0.260, 1.976e-10
-0.259, 2.018e-10
-0.258, 2.075e-10
-0.257, 2.145e-10
-0.256, 2.196e-10
-0.255, 2.243e-10
-0.254, 2.313e-10
-0.253, 2.371e-10
-0.252, 2.417e-10
-0.251, 2.480e-10
-0.250, 2.536e-10
-0.249, 2.590e-10
-0.248, 2.655e-10
-0.247, 2.702e-10
-0.246, 2.749e-10
-0.245, 2.803e-10
-0.244, 2.871e-10
-0.243, 2.933e-10
-0.242, 2.987e-10
-0.241, 3.031e-10
-0.240, 3.094e-10
-0.239, 3.149e-10
-0.238, 3.199e-10
-0.237, 3.253e-10
-0.236, 3.312e-10
-0.235, 3.363e-10
-0.234, 3.415e-10
-0.233, 3.457e-10
-0.232, 3.508e-10
-0.231, 3.568e-10
-0.230, 3.621e-10
-0.229, 3.672e-10
-0.228, 3.717e-10
-0.227, 3.777e-10
-0.226, 3.833e-10
-0.225, 3.888e-10
-0.224, 3.950e-10
-0.223, 4.003e-10
-0.222, 4.053e-10
-0.221, 4.110e-10
-0.220, 4.152e-10
-0.219, 4.204e-10
-0.218, 4.254e-10
-0.217, 4.308e-10
-0.216, 4.367e-10
-0.215, 4.417e-10
-0.214, 4.463e-10
-0.213, 4.530e-10
-0.212, 4.574e-10
-0.211, 4.624e-10
-0.210, 4.678e-10
-0.209, 4.735e-10
-0.208, 4.784e-10
-0.207, 4.829e-10
-0.206, 4.886e-10
-0.205, 4.929e-10
-0.204, 4.967e-10
-0.203, 5.029e-10
-0.202, 5.092e-10
-0.201, 5.138e-10
-0.200, 5.189e-10
-0.199, 5.249e-10
-0.198, 5.293e-10
-0.197, 5.336e-10
-0.196, 5.392e-10
-0.195, 5.438e-10
-0.194, 5.506e-10
-0.193, 5.559e-10
-0.192, 5.607e-10
-0.191, 5.657e-10
-0.190, 5.708e-10
-0.189, 5.759e-10
-0.188, 5.811e-10
-0.187, 5.862e-10
-0.186, 5.908e-10
-0.185, 5.961e-10
-0.184, 6.017e-10
-0.183, 6.075e-10
-0.182, 6.125e-10
-0.181, 6.176e-10
-0.180, 6.224e-10
-0.179, 6.267e-10
-0.178, 6.325e-10
-0.177, 6.368e-10
-0.176, 6.417e-10
-0.175, 6.466e-10
-0.174, 6.518e-10
-0.173, 6.575e-10
-0.172, 6.621e-10
-0.171, 6.663e-10
-0.170, 6.721e-10
-0.169, 6.764e-10
-0.168, 6.814e-10
-0.167, 6.866e-10
-0.166, 6.906e-10
-0.165, 6.963e-10
-0.164, 7.017e-10
-0.163, 7.056e-10
-0.162, 7.105e-10
-0.161, 7.167e-10
-0.160, 7.205e-10
-0.159, 7.258e-10
-0.158, 7.306e-10
-0.157, 7.364e-10
-0.156, 7.400e-10
-0.155, 7.444e-10
-0.154, 7.504e-10
-0.153, 7.542e-10
-0.152, 7.597e-10
-0.151, 7.647e-10
-0.150, 7.688e-10
-0.149, 7.743e-10
-0.148, 7.798e-10
-0.147, 7.848e-10
-0.146, 7.897e-10
-0.145, 7.942e-10
-0.144, 7.990e-10
-0.143, 8.041e-10
-0.142, 8.096e-10
-0.141, 8.132e-10
-0.140, 8.189e-10
-0.139, 8.233e-10
-0.138, 8.287e-10
-0.137, 8.323e-10
-0.136, 8.377e-10
-0.135, 8.443e-10
-0.134, 8.490e-10
-0.133, 8.537e-10
-0.132, 8.583e-10
-0.131, 8.628e-10
-0.130, 8.682e-10
-0.129, 8.724e-10
-0.128, 8.773e-10
-0.127, 8.825e-10
-0.126, 8.876e-10
-0.125, 8.921e-10
-0.124, 8.971e-10
-0.123, 9.015e-10
-0.122, 9.078e-10
-0.121, 9.124e-10
-0.120, 9.167e-10
-0.119, 9.218e-10
-0.118, 9.264e-10
-0.117, 9.319e-10
-0.116, 9.371e-10
-0.115, 9.408e-10
-0.114, 9.467e-10
-0.113, 9.507e-10
-0.112, 9.551e-10
-0.111, 9.600e-10
-0.110, 9.654e-10
-0.109, 9.711e-10
-0.108, 9.760e-10
-0.107, 9.809e-10
-0.106, 9.859e-10
-0.105, 9.898e-10
-0.104, 9.952e-10
-0.103, 1.001e-9
-0.102, 1.010e-9
-0.101, 1.013e-9
-0.100, 1.017e-9
-0.099, 1.021e-9
-0.098, 1.026e-9
-0.097, 1.031e-9
-0.096, 1.036e-9
-0.095, 1.041e-9
-0.094, 1.045e-9
-0.093, 1.050e-9
-0.092, 1.054e-9
-0.091, 1.059e-9
-0.090, 1.064e-9
-0.089, 1.068e-9
-0.088, 1.074e-9
-0.087, 1.079e-9
-0.086, 1.083e-9
-0.085, 1.089e-9
-0.084, 1.094e-9
-0.083, 1.099e-9
-0.082, 1.104e-9
-0.081, 1.109e-9
-0.080, 1.114e-9
-0.079, 1.119e-9
-0.078, 1.124e-9
-0.077, 1.128e-9
-0.076, 1.133e-9
-0.075, 1.138e-9
-0.074, 1.143e-9
-0.073, 1.148e-9
-0.072, 1.153e-9
-0.071, 1.158e-9
-0.070, 1.164e-9
-0.069, 1.169e-9
-0.068, 1.173e-9
-0.067, 1.177e-9
-0.066, 1.183e-9
-0.065, 1.188e-9
-0.064, 1.192e-9
-0.063, 1.197e-9
-0.062, 1.202e-9
-0.061, 1.208e-9
-0.060, 1.212e-9
-0.059, 1.219e-9
-0.058, 1.223e-9
-0.057, 1.228e-9
-0.056, 1.233e-9
-0.055, 1.238e-9
-0.054, 1.242e-9
-0.053, 1.248e-9
-0.052, 1.253e-9
-0.051, 1.256e-9
-0.050, 1.261e-9
-0.049, 1.268e-9
-0.048, 1.273e-9
-0.047, 1.277e-9
-0.046, 1.282e-9
-0.045, 1.288e-9
-0.044, 1.293e-9
-0.043, 1.297e-9
-0.042, 1.303e-9
-0.041, 1.308e-9
-0.040, 1.313e-9
-0.039, 1.318e-9
-0.038, 1.321e-9
-0.037, 1.326e-9
-0.036, 1.332e-9
-0.035, 1.337e-9
-0.034, 1.342e-9
-0.033, 1.348e-9
-0.032, 1.352e-9
-0.031, 1.357e-9
-0.030, 1.362e-9
-0.029, 1.367e-9
-0.028, 1.371e-9
-0.027, 1.377e-9
-0.026, 1.383e-9
-0.025, 1.387e-9
-0.024, 1.391e-9
-0.023, 1.398e-9
-0.022, 1.403e-9
-0.021, 1.408e-9
-0.020, 1.412e-9
-0.019, 1.417e-9
-0.018, 1.423e-9
-0.017, 1.428e-9
-0.016, 1.432e-9
-0.015, 1.438e-9
-0.014, 1.443e-9
-0.013, 1.448e-9
-0.012, 1.452e-9
-0.011, 1.458e-9
-0.010, 1.463e-9
-0.009, 1.468e-9
-0.008, 1.472e-9
-0.007, 1.477e-9
-0.006, 1.483e-9
-0.005, 1.489e-9
-0.004, 1.494e-9
-0.003, 1.499e-9
-0.002, 1.503e-9
-0.001, 1.507e-9
0.000, 1.509e-9
0.001, 1.514e-9
0.002, 1.521e-9
0.003, 1.527e-9
0.004, 1.533e-9
0.005, 1.537e-9
0.006, 1.542e-9
0.007, 1.548e-9
0.008, 1.554e-9
0.009, 1.560e-9
0.010, 1.562e-9
0.011, 1.568e-9
0.012, 1.573e-9
0.013, 1.578e-9
0.014, 1.583e-9
0.015, 1.589e-9
0.016, 1.594e-9
0.017, 1.598e-9
0.018, 1.603e-9
0.019, 1.608e-9
0.020, 1.614e-9
0.021, 1.619e-9
0.022, 1.624e-9
0.023, 1.629e-9
0.024, 1.635e-9
0.025, 1.640e-9
0.026, 1.645e-9
0.027, 1.650e-9
0.028, 1.654e-9
0.029, 1.659e-9
0.030, 1.665e-9
0.031, 1.670e-9
0.032, 1.675e-9
0.033, 1.680e-9
0.034, 1.685e-9
0.035, 1.691e-9
0.036, 1.695e-9
0.037, 1.700e-9
0.038, 1.705e-9
0.039, 1.710e-9
0.040, 1.715e-9
0.041, 1.721e-9
0.042, 1.726e-9
0.043, 1.732e-9
0.044, 1.737e-9
0.045, 1.742e-9
0.046, 1.747e-9
0.047, 1.751e-9
0.048, 1.756e-9
0.049, 1.763e-9
0.050, 1.767e-9
0.051, 1.772e-9
0.052, 1.776e-9
0.053, 1.782e-9
0.054, 1.788e-9
0.055, 1.793e-9
0.056, 1.798e-9
0.057, 1.804e-9
0.058, 1.808e-9
0.059, 1.813e-9
0.060, 1.819e-9
0.061, 1.824e-9
0.062, 1.829e-9
0.063, 1.835e-9
0.064, 1.840e-9
0.065, 1.845e-9
0.066, 1.850e-9
0.067, 1.855e-9
0.068, 1.860e-9
0.069, 1.866e-9
0.070, 1.872e-9
0.071, 1.878e-9
0.072, 1.882e-9
0.073, 1.888e-9
0.074, 1.893e-9
0.075, 1.899e-9
0.076, 1.904e-9
0.077, 1.909e-9
0.078, 1.915e-9
0.079, 1.921e-9
0.080, 1.926e-9
0.081, 1.931e-9
0.082, 1.937e-9
0.083, 1.943e-9
0.084, 1.947e-9
0.085, 1.952e-9
0.086, 1.958e-9
0.087, 1.964e-9
0.088, 1.970e-9
0.089, 1.975e-9
0.090, 1.980e-9
0.091, 1.987e-9
0.092, 1.992e-9
0.093, 1.998e-9
0.094, 2.004e-9
0.095, 2.011e-9
0.096, 2.017e-9
0.097, 2.024e-9
0.098, 2.032e-9
0.099, 2.041e-9
0.100, 2.047e-9
0.101, 2.055e-9
0.102, 2.063e-9
0.103, 2.073e-9
0.104, 2.078e-9
0.105, 2.085e-9
0.106, 2.093e-9
0.107, 2.102e-9
0.108, 2.109e-9
0.109, 2.116e-9
0.110, 2.124e-9
0.111, 2.126e-9
0.112, 2.128e-9
0.113, 2.132e-9
0.114, 2.136e-9
0.115, 2.139e-9
0.116, 2.144e-9
0.117, 2.149e-9
0.118, 2.152e-9
0.119, 2.156e-9
0.120, 2.161e-9
0.121, 2.165e-9
0.122, 2.169e-9
0.123, 2.174e-9
0.124, 2.180e-9
0.125, 2.186e-9
0.126, 2.192e-9
0.127, 2.197e-9
0.128, 2.203e-9
0.129, 2.209e-9
0.130, 2.216e-9
0.131, 2.223e-9
0.132, 2.230e-9
0.133, 2.236e-9
0.134, 2.243e-9
0.135, 2.250e-9
0.136, 2.256e-9
0.137, 2.263e-9
0.138, 2.269e-9
0.139, 2.277e-9
0.140, 2.284e-9
0.141, 2.288e-9
0.142, 2.296e-9
0.143, 2.304e-9
0.144, 2.311e-9
0.145, 2.317e-9
0.146, 2.323e-9
0.147, 2.331e-9
0.148, 2.338e-9
0.149, 2.345e-9
0.150, 2.352e-9
0.151, 2.358e-9
0.152, 2.366e-9
0.153, 2.373e-9
0.154, 2.379e-9
0.155, 2.386e-9
0.156, 2.395e-9
0.157, 2.401e-9
0.158, 2.407e-9
0.159, 2.415e-9
0.160, 2.423e-9
0.161, 2.430e-9
0.162, 2.437e-9
0.163, 2.444e-9
0.164, 2.451e-9
0.165, 2.459e-9
0.166, 2.466e-9
0.167, 2.472e-9
0.168, 2.479e-9
0.169, 2.487e-9
0.170, 2.494e-9
0.171, 2.502e-9
0.172, 2.509e-9
0.173, 2.516e-9
0.174, 2.524e-9
0.175, 2.531e-9
0.176, 2.538e-9
0.177, 2.544e-9
0.178, 2.552e-9
0.179, 2.559e-9
0.180, 2.566e-9
0.181, 2.574e-9
0.182, 2.580e-9
0.183, 2.587e-9
0.184, 2.595e-9
0.185, 2.601e-9
0.186, 2.609e-9
0.187, 2.617e-9
0.188, 2.624e-9
0.189, 2.630e-9
0.190, 2.637e-9
0.191, 2.644e-9
0.192, 2.652e-9
0.193, 2.658e-9
0.194, 2.665e-9
0.195, 2.673e-9
0.196, 2.680e-9
0.197, 2.687e-9
0.198, 2.695e-9
0.199, 2.701e-9
0.200, 2.708e-9
0.201, 2.716e-9
0.202, 2.722e-9
0.203, 2.729e-9
0.204, 2.737e-9
0.205, 2.740e-9
0.206, 2.748e-9
0.207, 2.756e-9
0.208, 2.762e-9
0.209, 2.770e-9
0.210, 2.776e-9
0.211, 2.783e-9
0.212, 2.790e-9
0.213, 2.798e-9
0.214, 2.805e-9
0.215, 2.811e-9
0.216, 2.818e-9
0.217, 2.825e-9
0.218, 2.831e-9
0.219, 2.839e-9
0.220, 2.845e-9
0.221, 2.852e-9
0.222, 2.859e-9
0.223, 2.865e-9
0.224, 2.872e-9
0.225, 2.879e-9
0.226, 2.885e-9
0.227, 2.891e-9
0.228, 2.899e-9
0.229, 2.905e-9
0.230, 2.912e-9
0.231, 2.918e-9
0.232, 2.925e-9
0.233, 2.932e-9
0.234, 2.938e-9
0.235, 2.945e-9
0.236, 2.951e-9
0.237, 2.957e-9
0.238, 2.964e-9
0.239, 2.970e-9
0.240, 2.977e-9
0.241, 2.983e-9
0.242, 2.989e-9
0.243, 2.996e-9
0.244, 3.003e-9
0.245, 3.008e-9
0.246, 3.013e-9
0.247, 3.019e-9
0.248, 3.027e-9
0.249, 3.033e-9
0.250, 3.039e-9
0.251, 3.046e-9
0.252, 3.053e-9
0.253, 3.059e-9
0.254, 3.064e-9
0.255, 3.071e-9
0.256, 3.078e-9
0.257, 3.083e-9
0.258, 3.089e-9
0.259, 3.095e-9
0.260, 3.101e-9
0.261, 3.108e-9
0.262, 3.114e-9
0.263, 3.119e-9
0.264, 3.125e-9
0.265, 3.131e-9
0.266, 3.138e-9
0.267, 3.144e-9
0.268, 3.150e-9
0.269, 3.155e-9
0.270, 3.162e-9
0.271, 3.168e-9
0.272, 3.173e-9
0.273, 3.178e-9
0.274, 3.185e-9
0.275, 3.190e-9
0.276, 3.196e-9
0.277, 3.202e-9
0.278, 3.210e-9
0.279, 3.216e-9
0.280, 3.220e-9
0.281, 3.225e-9
0.282, 3.230e-9
0.283, 3.236e-9
0.284, 3.242e-9
0.285, 3.248e-9
0.286, 3.252e-9
0.287, 3.259e-9
0.288, 3.265e-9
0.289, 3.271e-9
0.290, 3.275e-9
0.291, 3.280e-9
0.292, 3.286e-9
0.293, 3.292e-9
0.294, 3.297e-9
0.295, 3.302e-9
0.296, 3.309e-9
0.297, 3.314e-9
0.298, 3.318e-9
0.299, 3.324e-9
0.300, 3.331e-9
0.301, 3.337e-9
0.302, 3.341e-9
0.303, 3.346e-9
0.304, 3.352e-9
0.305, 3.357e-9
0.306, 3.363e-9
0.307, 3.371e-9
0.308, 3.380e-9
0.309, 3.384e-9
0.310, 3.389e-9
0.311, 3.392e-9
0.312, 3.397e-9
0.313, 3.403e-9
0.314, 3.407e-9
0.315, 3.413e-9
0.316, 3.417e-9
0.317, 3.421e-9
0.318, 3.428e-9
0.319, 3.434e-9
0.320, 3.437e-9
0.321, 3.443e-9
0.322, 3.449e-9
0.323, 3.454e-9
0.324, 3.458e-9
0.325, 3.464e-9
0.326, 3.471e-9
0.327, 3.476e-9
0.328, 3.480e-9
0.329, 3.486e-9
0.330, 3.490e-9
0.331, 3.497e-9
0.332, 3.501e-9
0.333, 3.506e-9
0.334, 3.511e-9
0.335, 3.516e-9
0.336, 3.521e-9
0.337, 3.527e-9
0.338, 3.531e-9
0.339, 3.536e-9
0.340, 3.542e-9
0.341, 3.546e-9
0.342, 3.552e-9
0.343, 3.557e-9
0.344, 3.562e-9
0.345, 3.569e-9
0.346, 3.572e-9
0.347, 3.578e-9
0.348, 3.583e-9
0.349, 3.588e-9
0.350, 3.595e-9
0.351, 3.599e-9
0.352, 3.604e-9
0.353, 3.609e-9
0.354, 3.615e-9
0.355, 3.620e-9
0.356, 3.625e-9
0.357, 3.629e-9
0.358, 3.636e-9
0.359, 3.639e-9
0.360, 3.644e-9
0.361, 3.650e-9
0.362, 3.656e-9
0.363, 3.661e-9
0.364, 3.666e-9
0.365, 3.671e-9
0.366, 3.677e-9
0.367, 3.682e-9
0.368, 3.686e-9
0.369, 3.691e-9
0.370, 3.696e-9
0.371, 3.703e-9
0.372, 3.707e-9
0.373, 3.712e-9
0.374, 3.718e-9
0.375, 3.723e-9
0.376, 3.727e-9
0.377, 3.733e-9
0.378, 3.738e-9
0.379, 3.745e-9
0.380, 3.750e-9
0.381, 3.754e-9
0.382, 3.761e-9
0.383, 3.768e-9
0.384, 3.773e-9
0.385, 3.776e-9
0.386, 3.781e-9
0.387, 3.786e-9
0.388, 3.791e-9
0.389, 3.796e-9
0.390, 3.802e-9
0.391, 3.807e-9
0.392, 3.813e-9
0.393, 3.820e-9
0.394, 3.824e-9
0.395, 3.830e-9
0.396, 3.836e-9
0.397, 3.841e-9
0.398, 3.846e-9
0.399, 3.851e-9
0.400, 3.856e-9
0.401, 3.863e-9
0.402, 3.868e-9
0.403, 3.873e-9
0.404, 3.880e-9
0.405, 3.887e-9
0.406, 3.893e-9
0.407, 3.896e-9
0.408, 3.903e-9
0.409, 3.910e-9
0.410, 3.908e-9
0.411, 3.917e-9
0.412, 3.925e-9
0.413, 3.932e-9
0.414, 3.938e-9
0.415, 3.944e-9
0.416, 3.949e-9
0.417, 3.956e-9
0.418, 3.963e-9
0.419, 3.969e-9
0.420, 3.973e-9
0.421, 3.978e-9
0.422, 3.984e-9
0.423, 3.988e-9
0.424, 3.995e-9
0.425, 4.001e-9
0.426, 4.006e-9
0.427, 4.012e-9
0.428, 4.017e-9
0.429, 4.023e-9
0.430, 4.031e-9
0.431, 4.036e-9
0.432, 4.041e-9
0.433, 4.046e-9
0.434, 4.052e-9
0.435, 4.058e-9
0.436, 4.063e-9
0.437, 4.068e-9
0.438, 4.074e-9
0.439, 4.079e-9
0.440, 4.087e-9
0.441, 4.093e-9
0.442, 4.100e-9
0.443, 4.106e-9
0.444, 4.111e-9
0.445, 4.117e-9
0.446, 4.125e-9
0.447, 4.130e-9
0.448, 4.136e-9
0.449, 4.141e-9
0.450, 4.147e-9
0.451, 4.152e-9
0.452, 4.157e-9
0.453, 4.163e-9
0.454, 4.170e-9
0.455, 4.177e-9
0.456, 4.184e-9
0.457, 4.190e-9
0.458, 4.195e-9
0.459, 4.202e-9
0.460, 4.207e-9
0.461, 4.212e-9
0.462, 4.218e-9
0.463, 4.223e-9
0.464, 4.228e-9
0.465, 4.235e-9
0.466, 4.243e-9
0.467, 4.249e-9
0.468, 4.256e-9
0.469, 4.262e-9
0.470, 4.268e-9
0.471, 4.274e-9
0.472, 4.282e-9
0.473, 4.288e-9
0.474, 4.292e-9
0.475, 4.299e-9
0.476, 4.307e-9
0.477, 4.314e-9
0.478, 4.319e-9
0.479, 4.327e-9
0.480, 4.332e-9
0.481, 4.340e-9
0.482, 4.347e-9
0.483, 4.353e-9
0.484, 4.359e-9
0.485, 4.366e-9
0.486, 4.373e-9
0.487, 4.379e-9
0.488, 4.387e-9
0.489, 4.394e-9
0.490, 4.402e-9
0.491, 4.411e-9
0.492, 4.418e-9
0.493, 4.425e-9
0.494, 4.432e-9
0.495, 4.440e-9
0.496, 4.447e-9
0.497, 4.455e-9
0.498, 4.464e-9
0.499, 4.474e-9
0.500, 4.434e-9
0.499, 4.246e-9
0.498, 4.124e-9
0.497, 4.046e-9
0.496, 3.981e-9
0.495, 3.922e-9
0.494, 3.869e-9
0.493, 3.820e-9
0.492, 3.774e-9
0.491, 3.729e-9
0.490, 3.686e-9
0.489, 3.645e-9
0.488, 3.607e-9
0.487, 3.571e-9
0.486, 3.533e-9
0.485, 3.497e-9
0.484, 3.462e-9
0.483, 3.430e-9
0.482, 3.396e-9
0.481, 3.363e-9
0.480, 3.331e-9
0.479, 3.302e-9
0.478, 3.271e-9
0.477, 3.241e-9
0.476, 3.213e-9
0.475, 3.185e-9
0.474, 3.157e-9
0.473, 3.130e-9
0.472, 3.103e-9
0.471, 3.078e-9
0.470, 3.052e-9
0.469, 3.027e-9
0.468, 3.001e-9
0.467, 2.975e-9
0.466, 2.951e-9
0.465, 2.928e-9
0.464, 2.905e-9
0.463, 2.882e-9
0.462, 2.859e-9
0.461, 2.837e-9
0.460, 2.814e-9
0.459, 2.792e-9
0.458, 2.770e-9
0.457, 2.750e-9
0.456, 2.727e-9
0.455, 2.706e-9
0.454, 2.686e-9
0.453, 2.666e-9
0.452, 2.644e-9
0.451, 2.625e-9
0.450, 2.604e-9
0.449, 2.585e-9
0.448, 2.566e-9
0.447, 2.546e-9
0.446, 2.527e-9
0.445, 2.508e-9
0.444, 2.487e-9
0.443, 2.468e-9
0.442, 2.450e-9
0.441, 2.433e-9
0.440, 2.413e-9
0.439, 2.394e-9
0.438, 2.377e-9
0.437, 2.359e-9
0.436, 2.341e-9
0.435, 2.324e-9
0.434, 2.307e-9
0.433, 2.289e-9
0.432, 2.272e-9
0.431, 2.255e-9
0.430, 2.239e-9
0.429, 2.221e-9
0.428, 2.203e-9
0.427, 2.187e-9
0.426, 2.169e-9
0.425, 2.153e-9
0.424, 2.136e-9
0.423, 2.120e-9
0.422, 2.105e-9
0.421, 2.088e-9
0.420, 2.073e-9
0.419, 2.058e-9
0.418, 2.042e-9
0.417, 2.026e-9
0.416, 2.009e-9
0.415, 1.994e-9
0.414, 1.978e-9
0.413, 1.963e-9
0.412, 1.947e-9
0.411, 1.932e-9
0.410, 1.919e-9
0.409, 1.909e-9
0.408, 1.891e-9
0.407, 1.875e-9
0.406, 1.860e-9
0.405, 1.844e-9
0.404, 1.829e-9
0.403, 1.814e-9
0.402, 1.798e-9
0.401, 1.785e-9
0.400, 1.770e-9
0.399, 1.756e-9
0.398, 1.743e-9
0.397, 1.728e-9
0.396, 1.713e-9
0.395, 1.699e-9
0.394, 1.684e-9
0.393, 1.671e-9
0.392, 1.657e-9
0.391, 1.642e-9
0.390, 1.629e-9
0.389, 1.616e-9
0.388, 1.601e-9
0.387, 1.587e-9
0.386, 1.573e-9
0.385, 1.560e-9
0.384, 1.547e-9
0.383, 1.532e-9
0.382, 1.519e-9
0.381, 1.506e-9
0.380, 1.493e-9
0.379, 1.479e-9
0.378, 1.465e-9
0.377, 1.452e-9
0.376, 1.438e-9
0.375, 1.425e-9
0.374, 1.413e-9
0.373, 1.399e-9
0.372, 1.386e-9
0.371, 1.374e-9
0.370, 1.361e-9
0.369, 1.348e-9
0.368, 1.336e-9
0.367, 1.323e-9
0.366, 1.310e-9
0.365, 1.297e-9
0.364, 1.285e-9
0.363, 1.272e-9
0.362, 1.260e-9
0.361, 1.248e-9
0.360, 1.234e-9
0.359, 1.222e-9
0.358, 1.210e-9
0.357, 1.198e-9
0.356, 1.186e-9
0.355, 1.174e-9
0.354, 1.162e-9
0.353, 1.151e-9
0.352, 1.138e-9
0.351, 1.124e-9
0.350, 1.112e-9
0.349, 1.101e-9
0.348, 1.090e-9
0.347, 1.077e-9
0.346, 1.065e-9
0.345, 1.053e-9
0.344, 1.042e-9
0.343, 1.029e-9
0.342, 1.017e-9
0.341, 1.006e-9
0.340, 9.956e-10
0.339, 9.832e-10
0.338, 9.709e-10
0.337, 9.590e-10
0.336, 9.485e-10
0.335, 9.364e-10
0.334, 9.244e-10
0.333, 9.132e-10
0.332, 9.026e-10
0.331, 8.915e-10
0.330, 8.799e-10
0.329, 8.683e-10
0.328, 8.570e-10
0.327, 8.465e-10
0.326, 8.355e-10
0.325, 8.242e-10
0.324, 8.124e-10
0.323, 8.020e-10
0.322, 7.914e-10
0.321, 7.800e-10
0.320, 7.688e-10
0.319, 7.581e-10
0.318, 7.476e-10
0.317, 7.371e-10
0.316, 7.255e-10
0.315, 7.143e-10
0.314, 7.039e-10
0.313, 6.945e-10
0.312, 6.839e-10
0.311, 6.719e-10
0.310, 6.630e-10
0.309, 6.526e-10
0.308, 6.414e-10
0.307, 6.264e-10
0.306, 6.172e-10
0.305, 6.080e-10
0.304, 5.985e-10
0.303, 5.880e-10
0.302, 5.777e-10
0.301, 5.680e-10
0.300, 5.586e-10
0.299, 5.482e-10
0.298, 5.385e-10
0.297, 5.283e-10
0.296, 5.184e-10
0.295, 5.088e-10
0.294, 5.003e-10
0.293, 4.907e-10
0.292, 4.804e-10
0.291, 4.717e-10
0.290, 4.626e-10
0.289, 4.535e-10
0.288, 4.436e-10
0.287, 4.337e-10
0.286, 4.241e-10
0.285, 4.144e-10
0.284, 4.056e-10
0.283, 3.971e-10
0.282, 3.886e-10
0.281, 3.795e-10
0.280, 3.698e-10
0.279, 3.602e-10
0.278, 3.518e-10
0.277, 3.430e-10
0.276, 3.334e-10
0.275, 3.250e-10
0.274, 3.163e-10
0.273, 3.068e-10
0.272, 2.987e-10
0.271, 2.909e-10
0.270, 2.829e-10
0.269, 2.734e-10
0.268, 2.650e-10
0.267, 2.578e-10
0.266, 2.498e-10
0.265, 2.416e-10
0.264, 2.336e-10
0.263, 2.248e-10
0.262, 2.158e-10
0.261, 2.082e-10
0.260, 2.013e-10
0.259, 1.929e-10
0.258, 1.842e-10
0.257, 1.756e-10
0.256, 1.694e-10
0.255, 1.613e-10
0.254, 1.536e-10
0.253, 1.462e-10
0.252, 1.394e-10
0.251, 1.325e-10
0.250, 1.235e-10
0.249, 1.159e-10
0.248, 1.087e-10
0.247, 1.012e-10
0.246, 9.488e-11
0.245, 8.675e-11
0.244, 7.936e-11
0.243, 7.280e-11
0.242, 6.549e-11
0.241, 5.871e-11
0.240, 5.207e-11
0.239, 4.416e-11
0.238, 3.828e-11
0.237, 3.078e-11
0.236, 2.432e-11
0.235, 1.832e-11
0.234, 1.207e-11
0.233, 4.956e-12
0.232, -9.124e-13
0.231, -8.204e-12
0.230, -1.416e-11
0.229, -2.202e-11
0.228, -2.793e-11
0.227, -3.366e-11
0.226, -3.952e-11
0.225, -4.515e-11
0.224, -5.104e-11
0.223, -5.712e-11
0.222, -6.344e-11
0.221, -6.917e-11
0.220, -7.376e-11
0.219, -7.993e-11
0.218, -8.619e-11
0.217, -9.142e-11
0.216, -9.709e-11
0.215, -1.034e-10
0.214, -1.084e-10
0.213, -1.143e-10
0.212, -1.186e-10
0.211, -1.243e-10
0.210, -1.304e-10
0.209, -1.343e-10
0.208, -1.396e-10
0.207, -1.463e-10
0.206, -1.527e-10
0.205, -1.556e-10
0.204, -1.579e-10
0.203, -1.655e-10
0.202, -1.709e-10
0.201, -1.750e-10
0.200, -1.810e-10
0.199, -1.864e-10
0.198, -1.901e-10
0.197, -1.929e-10
0.196, -1.982e-10
0.195, -2.049e-10
0.194, -2.116e-10
0.193, -2.170e-10
0.192, -2.228e-10
0.191, -2.282e-10
0.190, -2.332e-10
0.189, -2.378e-10
0.188, -2.429e-10
0.187, -2.469e-10
0.186, -2.437e-10
0.185, -2.437e-10
0.184, -2.523e-10
0.183, -2.638e-10
0.182, -2.692e-10
0.181, -2.743e-10
0.180, -2.799e-10
0.179, -2.842e-10
0.178, -2.883e-10
0.177, -2.924e-10
0.176, -2.979e-10
0.175, -3.025e-10
0.174, -3.055e-10
0.173, -3.097e-10
0.172, -3.149e-10
0.171, -3.180e-10
0.170, -3.236e-10
0.169, -3.292e-10
0.168, -3.337e-10
0.167, -3.382e-10
0.166, -3.409e-10
0.165, -3.462e-10
0.164, -3.509e-10
0.163, -3.540e-10
0.162, -3.588e-10
0.161, -3.640e-10
0.160, -3.683e-10
0.159, -3.723e-10
0.158, -3.767e-10
0.157, -3.816e-10
0.156, -3.854e-10
0.155, -3.893e-10
0.154, -3.938e-10
0.153, -3.983e-10
0.152, -4.022e-10
0.151, -4.063e-10
0.150, -4.106e-10
0.149, -4.165e-10
0.148, -4.194e-10
0.147, -4.238e-10
0.146, -4.287e-10
0.145, -4.329e-10
0.144, -4.379e-10
0.143, -4.439e-10
0.142, -4.494e-10
0.141, -4.539e-10
0.140, -4.576e-10
0.139, -4.615e-10
0.138, -4.639e-10
0.137, -4.658e-10
0.136, -4.713e-10
0.135, -4.764e-10
0.134, -4.804e-10
0.133, -4.841e-10
0.132, -4.903e-10
0.131, -4.944e-10
0.130, -4.983e-10
0.129, -5.025e-10
0.128, -5.068e-10
0.127, -5.128e-10
0.126, -5.163e-10
0.125, -5.197e-10
0.124, -5.239e-10
0.123, -5.288e-10
0.122, -5.338e-10
0.121, -5.382e-10
0.120, -5.430e-10
0.119, -5.483e-10
0.118, -5.527e-10
0.117, -5.574e-10
0.116, -5.620e-10
0.115, -5.656e-10
0.114, -5.711e-10
0.113, -5.761e-10
0.112, -5.797e-10
0.111, -5.845e-10
0.110, -5.895e-10
0.109, -5.939e-10
0.108, -5.990e-10
0.107, -6.029e-10
0.106, -6.086e-10
0.105, -6.120e-10
0.104, -6.162e-10
0.103, -6.217e-10
0.102, -6.315e-10
0.101, -6.338e-10
0.100, -6.384e-10
0.099, -6.422e-10
0.098, -6.472e-10
0.097, -6.522e-10
0.096, -6.567e-10
0.095, -6.618e-10
0.094, -6.670e-10
0.093, -6.715e-10
0.092, -6.760e-10
0.091, -6.818e-10
0.090, -6.871e-10
0.089, -6.907e-10
0.088, -6.960e-10
0.087, -7.012e-10
0.086, -7.054e-10
0.085, -7.111e-10
0.084, -7.166e-10
0.083, -7.215e-10
0.082, -7.271e-10
0.081, -7.327e-10
0.080, -7.370e-10
0.079, -7.417e-10
0.078, -7.467e-10
0.077, -7.523e-10
0.076, -7.580e-10
0.075, -7.631e-10
0.074, -7.686e-10
0.073, -7.740e-10
0.072, -7.798e-10
0.071, -7.850e-10
0.070, -7.904e-10
0.069, -7.951e-10
0.068, -8.002e-10
0.067, -8.054e-10
0.066, -8.118e-10
0.065, -8.164e-10
0.064, -8.218e-10
0.063, -8.284e-10
0.062, -8.336e-10
0.061, -8.379e-10
0.060, -8.433e-10
0.059, -8.495e-10
0.058, -8.557e-10
0.057, -8.615e-10
0.056, -8.669e-10
0.055, -8.734e-10
0.054, -8.785e-10
0.053, -8.853e-10
0.052, -8.899e-10
0.051, -8.944e-10
0.050, -9.011e-10
0.049, -9.064e-10
0.048, -9.121e-10
0.047, -9.179e-10
0.046, -9.248e-10
0.045, -9.321e-10
0.044, -9.378e-10
0.043, -9.433e-10
0.042, -9.495e-10
0.041, -9.555e-10
0.040, -9.621e-10
0.039, -9.676e-10
0.038, -9.725e-10
0.037, -9.804e-10
0.036, -9.868e-10
0.035, -9.915e-10
0.034, -9.980e-10
0.033, -1.004e-9
0.032, -1.010e-9
0.031, -1.017e-9
0.030, -1.023e-9
0.029, -1.029e-9
0.028, -1.035e-9
0.027, -1.042e-9
0.026, -1.047e-9
0.025, -1.053e-9
0.024, -1.060e-9
0.023, -1.068e-9
0.022, -1.071e-9
0.021, -1.078e-9
0.020, -1.084e-9
0.019, -1.092e-9
0.018, -1.098e-9
0.017, -1.104e-9
0.016, -1.109e-9
0.015, -1.117e-9
0.014, -1.124e-9
0.013, -1.129e-9
0.012, -1.135e-9
0.011, -1.141e-9
0.010, -1.148e-9
0.009, -1.153e-9
0.008, -1.160e-9
0.007, -1.167e-9
0.006, -1.174e-9
0.005, -1.180e-9
0.004, -1.186e-9
0.003, -1.192e-9
0.002, -1.200e-9
0.001, -1.207e-9
-0.000, -1.207e-9
-0.001, -1.214e-9
-0.002, -1.224e-9
-0.003, -1.230e-9
-0.004, -1.236e-9
-0.005, -1.242e-9
-0.006, -1.250e-9
-0.007, -1.256e-9
-0.008, -1.264e-9
-0.009, -1.270e-9
-0.010, -1.277e-9
-0.011, -1.285e-9
-0.012, -1.294e-9
-0.013, -1.299e-9
-0.014, -1.306e-9
-0.015, -1.313e-9
-0.016, -1.321e-9
-0.017, -1.326e-9
-0.018, -1.332e-9
-0.019, -1.339e-9
-0.020, -1.347e-9
-0.021, -1.355e-9
-0.022, -1.361e-9
-0.023, -1.368e-9
-0.024, -1.375e-9
-0.025, -1.382e-9
-0.026, -1.391e-9
-0.027, -1.398e-9
-0.028, -1.404e-9
-0.029, -1.410e-9
-0.030, -1.417e-9
-0.031, -1.426e-9
-0.032, -1.433e-9
-0.033, -1.440e-9
-0.034, -1.449e-9
-0.035, -1.461e-9
-0.036, -1.473e-9
-0.037, -1.482e-9
-0.038, -1.487e-9
-0.039, -1.495e-9
-0.040, -1.505e-9
-0.041, -1.516e-9
-0.042, -1.523e-9
-0.043, -1.530e-9
-0.044, -1.542e-9
-0.045, -1.549e-9
-0.046, -1.550e-9
-0.047, -1.553e-9
-0.048, -1.559e-9
-0.049, -1.563e-9
-0.050, -1.570e-9
-0.051, -1.569e-9
-0.052, -1.569e-9
-0.053, -1.573e-9
-0.054, -1.579e-9
-0.055, -1.584e-9
-0.056, -1.594e-9
-0.057, -1.599e-9
-0.058, -1.599e-9
-0.059, -1.600e-9
-0.060, -1.606e-9
-0.061, -1.611e-9
-0.062, -1.616e-9
-0.063, -1.624e-9
-0.064, -1.629e-9
-0.065, -1.634e-9
-0.066, -1.641e-9
-0.067, -1.647e-9
-0.068, -1.657e-9
-0.069, -1.663e-9
-0.070, -1.668e-9
-0.071, -1.674e-9
-0.072, -1.681e-9
-0.073, -1.689e-9
-0.074, -1.699e-9
-0.075, -1.714e-9
-0.076, -1.717e-9
-0.077, -1.713e-9
-0.078, -1.718e-9
-0.079, -1.724e-9
-0.080, -1.730e-9
-0.081, -1.736e-9
-0.082, -1.743e-9
-0.083, -1.750e-9
-0.084, -1.754e-9
-0.085, -1.759e-9
-0.086, -1.765e-9
-0.087, -1.773e-9
-0.088, -1.781e-9
-0.089, -1.789e-9
-0.090, -1.795e-9
-0.091, -1.801e-9
-0.092, -1.808e-9
-0.093, -1.813e-9
-0.094, -1.817e-9
-0.095, -1.822e-9
-0.096, -1.829e-9
-0.097, -1.837e-9
-0.098, -1.845e-9
-0.099, -1.853e-9
-0.100, -1.859e-9
-0.101, -1.867e-9
-0.102, -1.875e-9
-0.103, -1.884e-9
-0.104, -1.886e-9
-0.105, -1.892e-9
-0.106, -1.895e-9
-0.107, -1.901e-9
-0.108, -1.909e-9
-0.109, -1.914e-9
-0.110, -1.921e-9
-0.111, -1.927e-9
-0.112, -1.932e-9
-0.113, -1.938e-9
-0.114, -1.944e-9
-0.115, -1.950e-9
-0.116, -1.956e-9
-0.117, -1.961e-9
-0.118, -1.966e-9
-0.119, -1.970e-9
-0.120, -1.975e-9
-0.121, -1.982e-9
-0.122, -1.988e-9
-0.123, -1.995e-9
-0.124, -2.000e-9
-0.125, -2.006e-9
-0.126, -2.014e-9
-0.127, -2.020e-9
-0.128, -2.024e-9
-0.129, -2.031e-9
-0.130, -2.047e-9
-0.131, -2.051e-9
-0.132, -2.062e-9
-0.133, -2.055e-9
-0.134, -2.058e-9
-0.135, -2.065e-9
-0.136, -2.071e-9
-0.137, -2.077e-9
-0.138, -2.080e-9
-0.139, -2.086e-9
-0.140, -2.092e-9
-0.141, -2.095e-9
-0.142, -2.101e-9
-0.143, -2.108e-9
-0.144, -2.114e-9
-0.145, -2.120e-9
-0.146, -2.125e-9
-0.147, -2.132e-9
-0.148, -2.138e-9
-0.149, -2.142e-9
-0.150, -2.147e-9
-0.151, -2.152e-9
-0.152, -2.158e-9
-0.153, -2.164e-9
-0.154, -2.169e-9
-0.155, -2.176e-9
-0.156, -2.182e-9
-0.157, -2.188e-9
-0.158, -2.193e-9
-0.159, -2.198e-9
-0.160, -2.205e-9
-0.161, -2.211e-9
-0.162, -2.215e-9
-0.163, -2.220e-9
-0.164, -2.226e-9
-0.165, -2.232e-9
-0.166, -2.237e-9
-0.167, -2.241e-9
-0.168, -2.248e-9
-0.169, -2.254e-9
-0.170, -2.258e-9
-0.171, -2.263e-9
-0.172, -2.268e-9
-0.173, -2.274e-9
-0.174, -2.280e-9
-0.175, -2.286e-9
-0.176, -2.290e-9
-0.177, -2.296e-9
-0.178, -2.300e-9
-0.179, -2.306e-9
-0.180, -2.312e-9
-0.181, -2.317e-9
-0.182, -2.322e-9
-0.183, -2.327e-9
-0.184, -2.334e-9
-0.185, -2.339e-9
-0.186, -2.343e-9
-0.187, -2.349e-9
-0.188, -2.354e-9
-0.189, -2.359e-9
-0.190, -2.365e-9
-0.191, -2.370e-9
-0.192, -2.376e-9
-0.193, -2.382e-9
-0.194, -2.386e-9
-0.195, -2.391e-9
-0.196, -2.396e-9
-0.197, -2.402e-9
-0.198, -2.406e-9
-0.199, -2.412e-9
-0.200, -2.418e-9
-0.201, -2.423e-9
-0.202, -2.428e-9
-0.203, -2.433e-9
-0.204, -2.439e-9
-0.205, -2.440e-9
-0.206, -2.447e-9
-0.207, -2.452e-9
-0.208, -2.459e-9
-0.209, -2.464e-9
-0.210, -2.471e-9
-0.211, -2.476e-9
-0.212, -2.480e-9
-0.213, -2.486e-9
-0.214, -2.492e-9
-0.215, -2.497e-9
-0.216, -2.503e-9
-0.217, -2.508e-9
-0.218, -2.513e-9
-0.219, -2.519e-9
-0.220, -2.524e-9
-0.221, -2.531e-9
-0.222, -2.535e-9
-0.223, -2.539e-9
-0.224, -2.545e-9
-0.225, -2.552e-9
-0.226, -2.555e-9
-0.227, -2.560e-9
-0.228, -2.566e-9
-0.229, -2.570e-9
-0.230, -2.575e-9
-0.231, -2.580e-9
-0.232, -2.585e-9
-0.233, -2.591e-9
-0.234, -2.595e-9
-0.235, -2.600e-9
-0.236, -2.607e-9
-0.237, -2.614e-9
-0.238, -2.618e-9
-0.239, -2.623e-9
-0.240, -2.629e-9
-0.241, -2.633e-9
-0.242, -2.638e-9
-0.243, -2.643e-9
-0.244, -2.648e-9
-0.245, -2.654e-9
-0.246, -2.659e-9
-0.247, -2.663e-9
-0.248, -2.667e-9
-0.249, -2.675e-9
-0.250, -2.680e-9
-0.251, -2.685e-9
-0.252, -2.690e-9
-0.253, -2.695e-9
-0.254, -2.699e-9
-0.255, -2.705e-9
-0.256, -2.711e-9
-0.257, -2.715e-9
-0.258, -2.719e-9
-0.259, -2.725e-9
-0.260, -2.731e-9
-0.261, -2.737e-9
-0.262, -2.742e-9
-0.263, -2.746e-9
-0.264, -2.753e-9
-0.265, -2.758e-9
-0.266, -2.762e-9
-0.267, -2.766e-9
-0.268, -2.771e-9
-0.269, -2.776e-9
-0.270, -2.784e-9
-0.271, -2.785e-9
-0.272, -2.790e-9
-0.273, -2.797e-9
-0.274, -2.803e-9
-0.275, -2.806e-9
-0.276, -2.811e-9
-0.277, -2.817e-9
-0.278, -2.823e-9
-0.279, -2.826e-9
-0.280, -2.830e-9
-0.281, -2.836e-9
-0.282, -2.840e-9
-0.283, -2.847e-9
-0.284, -2.852e-9
-0.285, -2.856e-9
-0.286, -2.861e-9
-0.287, -2.867e-9
-0.288, -2.872e-9
-0.289, -2.879e-9
-0.290, -2.882e-9
-0.291, -2.888e-9
-0.292, -2.892e-9
-0.293, -2.896e-9
-0.294, -2.901e-9
-0.295, -2.907e-9
-0.296, -2.912e-9
-0.297, -2.917e-9
-0.298, -2.921e-9
-0.299, -2.927e-9
-0.300, -2.932e-9
-0.301, -2.936e-9
-0.302, -2.942e-9
-0.303, -2.947e-9
-0.304, -2.953e-9
-0.305, -2.959e-9
-0.306, -2.963e-9
-0.307, -2.971e-9
-0.308, -2.978e-9
-0.309, -2.980e-9
-0.310, -2.984e-9
-0.311, -2.988e-9
-0.312, -2.993e-9
-0.313, -2.999e-9
-0.314, -3.005e-9
-0.315, -3.010e-9
-0.316, -3.015e-9
-0.317, -3.018e-9
-0.318, -3.024e-9
-0.319, -3.029e-9
-0.320, -3.033e-9
-0.321, -3.039e-9
-0.322, -3.045e-9
-0.323, -3.049e-9
-0.324, -3.052e-9
-0.325, -3.059e-9
-0.326, -3.067e-9
-0.327, -3.071e-9
-0.328, -3.076e-9
-0.329, -3.081e-9
-0.330, -3.086e-9
-0.331, -3.092e-9
-0.332, -3.098e-9
-0.333, -3.102e-9
-0.334, -3.108e-9
-0.335, -3.112e-9
-0.336, -3.117e-9
-0.337, -3.123e-9
-0.338, -3.129e-9
-0.339, -3.133e-9
-0.340, -3.139e-9
-0.341, -3.145e-9
-0.342, -3.150e-9
-0.343, -3.154e-9
-0.344, -3.160e-9
-0.345, -3.166e-9
-0.346, -3.169e-9
-0.347, -3.175e-9
-0.348, -3.180e-9
-0.349, -3.185e-9
-0.350, -3.190e-9
-0.351, -3.196e-9
-0.352, -3.202e-9
-0.353, -3.207e-9
-0.354, -3.211e-9
-0.355, -3.217e-9
-0.356, -3.223e-9
-0.357, -3.227e-9
-0.358, -3.232e-9
-0.359, -3.238e-9
-0.360, -3.244e-9
-0.361, -3.250e-9
-0.362, -3.253e-9
-0.363, -3.260e-9
-0.364, -3.266e-9
-0.365, -3.271e-9
-0.366, -3.276e-9
-0.367, -3.280e-9
-0.368, -3.285e-9
-0.369, -3.290e-9
-0.370, -3.296e-9
-0.371, -3.303e-9
-0.372, -3.307e-9
-0.373, -3.313e-9
-0.374, -3.318e-9
-0.375, -3.325e-9
-0.376, -3.329e-9
-0.377, -3.334e-9
-0.378, -3.340e-9
-0.379, -3.345e-9
-0.380, -3.350e-9
-0.381, -3.355e-9
-0.382, -3.362e-9
-0.383, -3.367e-9
-0.384, -3.371e-9
-0.385, -3.378e-9
-0.386, -3.382e-9
-0.387, -3.387e-9
-0.388, -3.391e-9
-0.389, -3.401e-9
-0.390, -3.406e-9
-0.391, -3.411e-9
-0.392, -3.416e-9
-0.393, -3.422e-9
-0.394, -3.428e-9
-0.395, -3.433e-9
-0.396, -3.439e-9
-0.397, -3.443e-9
-0.398, -3.451e-9
-0.399, -3.455e-9
-0.400, -3.457e-9
-0.401, -3.465e-9
-0.402, -3.472e-9
-0.403, -3.477e-9
-0.404, -3.485e-9
-0.405, -3.490e-9
-0.406, -3.494e-9
-0.407, -3.499e-9
-0.408, -3.505e-9
-0.409, -3.512e-9
-0.410, -3.518e-9
-0.411, -3.523e-9
-0.412, -3.531e-9
-0.413, -3.533e-9
-0.414, -3.540e-9
-0.415, -3.545e-9
-0.416, -3.553e-9
-0.417, -3.558e-9
-0.418, -3.563e-9
-0.419, -3.569e-9
-0.420, -3.575e-9
-0.421, -3.581e-9
-0.422, -3.586e-9
-0.423, -3.593e-9
-0.424, -3.599e-9
-0.425, -3.605e-9
-0.426, -3.610e-9
-0.427, -3.615e-9
-0.428, -3.622e-9
-0.429, -3.628e-9
-0.430, -3.633e-9
-0.431, -3.639e-9
-0.432, -3.646e-9
-0.433, -3.651e-9
-0.434, -3.657e-9
-0.435, -3.664e-9
-0.436, -3.668e-9
-0.437, -3.673e-9
-0.438, -3.680e-9
-0.439, -3.686e-9
-0.440, -3.692e-9
-0.441, -3.698e-9
-0.442, -3.704e-9
-0.443, -3.712e-9
-0.444, -3.718e-9
-0.445, -3.722e-9
-0.446, -3.728e-9
-0.447, -3.734e-9
-0.448, -3.740e-9
-0.449, -3.747e-9
-0.450, -3.752e-9
-0.451, -3.759e-9
-0.452, -3.766e-9
-0.453, -3.771e-9
-0.454, -3.778e-9
-0.455, -3.784e-9
-0.456, -3.789e-9
-0.457, -3.796e-9
-0.458, -3.801e-9
-0.459, -3.808e-9
-0.460, -3.814e-9
-0.461, -3.820e-9
-0.462, -3.826e-9
-0.463, -3.833e-9
-0.464, -3.838e-9
-0.465, -3.845e-9
-0.466, -3.852e-9
-0.467, -3.858e-9
-0.468, -3.864e-9
-0.469, -3.870e-9
-0.470, -3.877e-9
-0.471, -3.884e-9
-0.472, -3.890e-9
-0.473, -3.898e-9
-0.474, -3.903e-9
-0.475, -3.912e-9
-0.476, -3.917e-9
-0.477, -3.923e-9
-0.478, -3.932e-9
-0.479, -3.938e-9
-0.480, -3.944e-9
-0.481, -3.950e-9
-0.482, -3.960e-9
-0.483, -3.966e-9
-0.484, -3.971e-9
-0.485, -3.978e-9
-0.486, -3.987e-9
-0.487, -3.992e-9
-0.488, -4.000e-9
-0.489, -4.008e-9
-0.490, -4.014e-9
-0.491, -4.021e-9
-0.492, -4.029e-9
-0.493, -4.037e-9
-0.494, -4.044e-9
-0.495, -4.051e-9
-0.496, -4.056e-9
-0.497, -4.063e-9
-0.498, -4.070e-9
-0.499, -4.078e-9
