Nov. 20, 2024   13:24:22
Cyclic Voltammetry
File: +12 2319-1 fto cv_cells_light_bulk 50 mv s-1.bin
Data Source:  Experiment
Instrument Model:  CHI920C
Ref. Electrode: 
Header: 
Note: 

Init E (V) = -0.5
High E (V) = 0.5
Low E (V) = -0.5
Init P/N = P
Scan Rate (V/s) = 0.05
Segment = 2
Sample Interval (V) = 0.001
Quiet Time (sec) = 10
Sensitivity (A/V) = 1e-7

Results:

Channel 1:
Segment 1:
Ep = -0.139V
ip = 4.953e-10A
Ah = 2.970e-10C

Segment 2:
Ep = -0.093V
ip = -1.022e-9A
Ah = -3.280e-10C

Potential/V, Current/A

-0.500, -4.238e-10
-0.499, -4.116e-10
-0.498, -4.030e-10
-0.497, -3.962e-10
-0.496, -3.906e-10
-0.495, -3.868e-10
-0.494, -3.786e-10
-0.493, -3.726e-10
-0.492, -3.672e-10
-0.491, -3.643e-10
-0.490, -3.577e-10
-0.489, -3.544e-10
-0.488, -3.508e-10
-0.487, -3.467e-10
-0.486, -3.411e-10
-0.485, -3.378e-10
-0.484, -3.349e-10
-0.483, -3.290e-10
-0.482, -3.241e-10
-0.481, -3.215e-10
-0.480, -3.186e-10
-0.479, -3.151e-10
-0.478, -3.135e-10
-0.477, -3.096e-10
-0.476, -3.051e-10
-0.475, -2.981e-10
-0.474, -2.946e-10
-0.473, -2.905e-10
-0.472, -2.858e-10
-0.471, -2.820e-10
-0.470, -2.769e-10
-0.469, -2.746e-10
-0.468, -2.688e-10
-0.467, -2.622e-10
-0.466, -2.558e-10
-0.465, -2.526e-10
-0.464, -2.468e-10
-0.463, -2.393e-10
-0.462, -2.305e-10
-0.461, -2.169e-10
-0.460, -2.185e-10
-0.459, -2.167e-10
-0.458, -2.149e-10
-0.457, -2.114e-10
-0.456, -2.084e-10
-0.455, -2.045e-10
-0.454, -2.003e-10
-0.453, -1.947e-10
-0.452, -1.924e-10
-0.451, -1.884e-10
-0.450, -1.741e-10
-0.449, -1.714e-10
-0.448, -1.723e-10
-0.447, -1.629e-10
-0.446, -1.471e-10
-0.445, -1.371e-10
-0.444, -1.304e-10
-0.443, -1.246e-10
-0.442, -1.182e-10
-0.441, -1.223e-10
-0.440, -1.182e-10
-0.439, -1.076e-10
-0.438, -1.214e-10
-0.437, -1.222e-10
-0.436, -1.180e-10
-0.435, -1.140e-10
-0.434, -1.110e-10
-0.433, -1.056e-10
-0.432, -1.016e-10
-0.431, -9.783e-11
-0.430, -9.130e-11
-0.429, -9.013e-11
-0.428, -8.633e-11
-0.427, -7.756e-11
-0.426, -7.473e-11
-0.425, -5.757e-11
-0.424, -3.778e-11
-0.423, -2.960e-11
-0.422, -2.492e-11
-0.421, -2.238e-11
-0.420, -2.258e-11
-0.419, -1.907e-11
-0.418, -1.380e-11
-0.417, -1.049e-11
-0.416, -5.810e-12
-0.415, 2.963e-12
-0.414, 3.061e-12
-0.413, 1.817e-11
-0.412, 2.285e-11
-0.411, 1.583e-11
-0.410, 1.583e-11
-0.409, 1.495e-11
-0.408, 1.369e-11
-0.407, 1.632e-11
-0.406, 2.616e-11
-0.405, 5.365e-11
-0.404, 4.352e-11
-0.403, 3.328e-11
-0.402, 3.309e-11
-0.401, 3.406e-11
-0.400, 3.474e-11
-0.399, 3.542e-11
-0.398, 3.747e-11
-0.397, 4.790e-11
-0.396, 5.482e-11
-0.395, 5.190e-11
-0.394, 5.239e-11
-0.393, 5.336e-11
-0.392, 5.434e-11
-0.391, 5.599e-11
-0.390, 5.775e-11
-0.389, 5.755e-11
-0.388, 6.058e-11
-0.387, 6.213e-11
-0.386, 6.506e-11
-0.385, 7.081e-11
-0.384, 7.393e-11
-0.383, 7.617e-11
-0.382, 7.715e-11
-0.381, 8.202e-11
-0.380, 8.134e-11
-0.379, 8.251e-11
-0.378, 9.937e-11
-0.377, 1.166e-10
-0.376, 1.190e-10
-0.375, 1.210e-10
-0.374, 1.164e-10
-0.373, 1.181e-10
-0.372, 1.189e-10
-0.371, 1.184e-10
-0.370, 1.194e-10
-0.369, 1.191e-10
-0.368, 1.189e-10
-0.367, 1.197e-10
-0.366, 1.265e-10
-0.365, 1.315e-10
-0.364, 1.312e-10
-0.363, 1.347e-10
-0.362, 1.383e-10
-0.361, 1.401e-10
-0.360, 1.411e-10
-0.359, 1.420e-10
-0.358, 1.423e-10
-0.357, 1.439e-10
-0.356, 1.445e-10
-0.355, 1.459e-10
-0.354, 1.459e-10
-0.353, 1.443e-10
-0.352, 1.476e-10
-0.351, 1.510e-10
-0.350, 1.536e-10
-0.349, 1.567e-10
-0.348, 1.599e-10
-0.347, 1.633e-10
-0.346, 1.635e-10
-0.345, 1.669e-10
-0.344, 1.765e-10
-0.343, 1.758e-10
-0.342, 2.607e-10
-0.341, 3.909e-10
-0.340, 4.564e-10
-0.339, 4.598e-10
-0.338, 6.539e-10
-0.337, 6.927e-10
-0.336, 5.436e-10
-0.335, 4.052e-10
-0.334, 4.646e-10
-0.333, 3.510e-10
-0.332, 3.585e-10
-0.331, 3.326e-10
-0.330, 2.723e-10
-0.329, 2.824e-10
-0.328, 2.547e-10
-0.327, 2.487e-10
-0.326, 2.902e-10
-0.325, 2.479e-10
-0.324, 2.333e-10
-0.323, 2.313e-10
-0.322, 2.400e-10
-0.321, 2.595e-10
-0.320, 2.438e-10
-0.319, 2.410e-10
-0.318, 2.401e-10
-0.317, 2.380e-10
-0.316, 2.387e-10
-0.315, 2.427e-10
-0.314, 2.458e-10
-0.313, 2.447e-10
-0.312, 2.442e-10
-0.311, 2.474e-10
-0.310, 2.532e-10
-0.309, 2.538e-10
-0.308, 2.557e-10
-0.307, 2.576e-10
-0.306, 2.607e-10
-0.305, 2.665e-10
-0.304, 2.666e-10
-0.303, 2.656e-10
-0.302, 2.670e-10
-0.301, 2.746e-10
-0.300, 3.192e-10
-0.299, 3.474e-10
-0.298, 3.483e-10
-0.297, 3.453e-10
-0.296, 3.286e-10
-0.295, 3.223e-10
-0.294, 3.090e-10
-0.293, 2.980e-10
-0.292, 2.978e-10
-0.291, 3.054e-10
-0.290, 3.006e-10
-0.289, 2.983e-10
-0.288, 2.970e-10
-0.287, 2.983e-10
-0.286, 2.999e-10
-0.285, 3.019e-10
-0.284, 3.024e-10
-0.283, 3.060e-10
-0.282, 3.165e-10
-0.281, 3.090e-10
-0.280, 3.076e-10
-0.279, 3.076e-10
-0.278, 3.088e-10
-0.277, 3.154e-10
-0.276, 3.174e-10
-0.275, 3.155e-10
-0.274, 3.209e-10
-0.273, 3.223e-10
-0.272, 3.142e-10
-0.271, 3.102e-10
-0.270, 3.126e-10
-0.269, 3.163e-10
-0.268, 3.263e-10
-0.267, 3.220e-10
-0.266, 3.215e-10
-0.265, 3.227e-10
-0.264, 3.212e-10
-0.263, 3.233e-10
-0.262, 3.264e-10
-0.261, 3.266e-10
-0.260, 3.301e-10
-0.259, 3.323e-10
-0.258, 3.348e-10
-0.257, 3.366e-10
-0.256, 3.353e-10
-0.255, 3.390e-10
-0.254, 3.433e-10
-0.253, 3.428e-10
-0.252, 3.445e-10
-0.251, 3.569e-10
-0.250, 3.566e-10
-0.249, 3.512e-10
-0.248, 3.530e-10
-0.247, 3.519e-10
-0.246, 3.530e-10
-0.245, 3.553e-10
-0.244, 3.543e-10
-0.243, 3.556e-10
-0.242, 3.532e-10
-0.241, 3.532e-10
-0.240, 3.582e-10
-0.239, 3.642e-10
-0.238, 3.642e-10
-0.237, 3.701e-10
-0.236, 3.703e-10
-0.235, 3.643e-10
-0.234, 3.632e-10
-0.233, 3.611e-10
-0.232, 3.585e-10
-0.231, 3.539e-10
-0.230, 3.553e-10
-0.229, 3.560e-10
-0.228, 3.596e-10
-0.227, 3.656e-10
-0.226, 3.741e-10
-0.225, 3.815e-10
-0.224, 3.828e-10
-0.223, 3.801e-10
-0.222, 3.937e-10
-0.221, 4.042e-10
-0.220, 3.980e-10
-0.219, 3.950e-10
-0.218, 3.948e-10
-0.217, 4.024e-10
-0.216, 4.058e-10
-0.215, 3.967e-10
-0.214, 3.965e-10
-0.213, 4.003e-10
-0.212, 4.022e-10
-0.211, 4.029e-10
-0.210, 4.014e-10
-0.209, 3.983e-10
-0.208, 3.950e-10
-0.207, 4.080e-10
-0.206, 4.087e-10
-0.205, 4.098e-10
-0.204, 4.045e-10
-0.203, 4.040e-10
-0.202, 4.026e-10
-0.201, 4.018e-10
-0.200, 4.066e-10
-0.199, 4.079e-10
-0.198, 4.047e-10
-0.197, 4.078e-10
-0.196, 4.109e-10
-0.195, 4.093e-10
-0.194, 4.045e-10
-0.193, 3.998e-10
-0.192, 3.981e-10
-0.191, 4.088e-10
-0.190, 4.153e-10
-0.189, 4.221e-10
-0.188, 4.188e-10
-0.187, 4.254e-10
-0.186, 4.245e-10
-0.185, 4.344e-10
-0.184, 4.290e-10
-0.183, 4.231e-10
-0.182, 4.321e-10
-0.181, 4.353e-10
-0.180, 4.364e-10
-0.179, 4.390e-10
-0.178, 4.463e-10
-0.177, 4.534e-10
-0.176, 4.506e-10
-0.175, 4.407e-10
-0.174, 4.415e-10
-0.173, 4.439e-10
-0.172, 4.424e-10
-0.171, 4.448e-10
-0.170, 4.418e-10
-0.169, 4.500e-10
-0.168, 4.495e-10
-0.167, 4.579e-10
-0.166, 4.727e-10
-0.165, 4.801e-10
-0.164, 4.943e-10
-0.163, 5.023e-10
-0.162, 5.188e-10
-0.161, 5.345e-10
-0.160, 5.596e-10
-0.159, 5.515e-10
-0.158, 5.365e-10
-0.157, 5.582e-10
-0.156, 6.135e-10
-0.155, 6.395e-10
-0.154, 6.336e-10
-0.153, 6.158e-10
-0.152, 6.053e-10
-0.151, 5.912e-10
-0.150, 5.653e-10
-0.149, 5.420e-10
-0.148, 5.313e-10
-0.147, 5.298e-10
-0.146, 5.234e-10
-0.145, 5.255e-10
-0.144, 5.350e-10
-0.143, 5.565e-10
-0.142, 5.769e-10
-0.141, 5.950e-10
-0.140, 6.787e-10
-0.139, 8.655e-10
-0.138, 7.634e-10
-0.137, 6.260e-10
-0.136, 5.622e-10
-0.135, 5.320e-10
-0.134, 5.235e-10
-0.133, 5.329e-10
-0.132, 5.279e-10
-0.131, 5.275e-10
-0.130, 5.285e-10
-0.129, 5.378e-10
-0.128, 5.377e-10
-0.127, 5.296e-10
-0.126, 5.281e-10
-0.125, 5.292e-10
-0.124, 5.299e-10
-0.123, 5.333e-10
-0.122, 5.441e-10
-0.121, 5.481e-10
-0.120, 5.416e-10
-0.119, 5.428e-10
-0.118, 5.445e-10
-0.117, 5.412e-10
-0.116, 5.497e-10
-0.115, 5.526e-10
-0.114, 5.517e-10
-0.113, 5.508e-10
-0.112, 5.516e-10
-0.111, 5.659e-10
-0.110, 5.580e-10
-0.109, 5.734e-10
-0.108, 5.713e-10
-0.107, 5.670e-10
-0.106, 5.772e-10
-0.105, 5.767e-10
-0.104, 5.809e-10
-0.103, 5.919e-10
-0.102, 5.908e-10
-0.101, 5.912e-10
-0.100, 5.911e-10
-0.099, 5.947e-10
-0.098, 6.038e-10
-0.097, 6.041e-10
-0.096, 6.070e-10
-0.095, 6.042e-10
-0.094, 6.132e-10
-0.093, 6.213e-10
-0.092, 6.194e-10
-0.091, 6.399e-10
-0.090, 6.759e-10
-0.089, 7.072e-10
-0.088, 7.279e-10
-0.087, 6.879e-10
-0.086, 6.589e-10
-0.085, 6.678e-10
-0.084, 6.646e-10
-0.083, 6.643e-10
-0.082, 6.693e-10
-0.081, 6.585e-10
-0.080, 6.493e-10
-0.079, 6.509e-10
-0.078, 6.584e-10
-0.077, 6.716e-10
-0.076, 6.687e-10
-0.075, 6.612e-10
-0.074, 6.586e-10
-0.073, 6.550e-10
-0.072, 6.561e-10
-0.071, 6.619e-10
-0.070, 6.668e-10
-0.069, 6.762e-10
-0.068, 6.786e-10
-0.067, 6.732e-10
-0.066, 6.673e-10
-0.065, 6.749e-10
-0.064, 6.677e-10
-0.063, 6.711e-10
-0.062, 6.733e-10
-0.061, 6.812e-10
-0.060, 6.848e-10
-0.059, 6.845e-10
-0.058, 6.865e-10
-0.057, 6.836e-10
-0.056, 6.925e-10
-0.055, 6.914e-10
-0.054, 6.859e-10
-0.053, 6.826e-10
-0.052, 6.867e-10
-0.051, 6.905e-10
-0.050, 6.933e-10
-0.049, 6.895e-10
-0.048, 6.880e-10
-0.047, 6.905e-10
-0.046, 7.015e-10
-0.045, 7.076e-10
-0.044, 7.086e-10
-0.043, 7.140e-10
-0.042, 7.249e-10
-0.041, 7.235e-10
-0.040, 7.255e-10
-0.039, 7.299e-10
-0.038, 7.333e-10
-0.037, 7.365e-10
-0.036, 7.374e-10
-0.035, 7.399e-10
-0.034, 7.432e-10
-0.033, 7.409e-10
-0.032, 7.390e-10
-0.031, 7.437e-10
-0.030, 7.443e-10
-0.029, 7.489e-10
-0.028, 7.509e-10
-0.027, 7.574e-10
-0.026, 7.622e-10
-0.025, 7.664e-10
-0.024, 7.711e-10
-0.023, 7.815e-10
-0.022, 7.875e-10
-0.021, 7.811e-10
-0.020, 7.990e-10
-0.019, 8.214e-10
-0.018, 8.050e-10
-0.017, 8.191e-10
-0.016, 8.282e-10
-0.015, 8.164e-10
-0.014, 8.109e-10
-0.013, 8.117e-10
-0.012, 8.205e-10
-0.011, 8.453e-10
-0.010, 8.314e-10
-0.009, 8.229e-10
-0.008, 8.262e-10
-0.007, 8.247e-10
-0.006, 8.218e-10
-0.005, 8.230e-10
-0.004, 8.369e-10
-0.003, 8.336e-10
-0.002, 8.383e-10
-0.001, 8.414e-10
0.000, 8.360e-10
0.001, 8.563e-10
0.002, 8.667e-10
0.003, 8.694e-10
0.004, 8.734e-10
0.005, 8.739e-10
0.006, 8.787e-10
0.007, 8.801e-10
0.008, 8.891e-10
0.009, 9.035e-10
0.010, 8.922e-10
0.011, 8.977e-10
0.012, 8.924e-10
0.013, 8.901e-10
0.014, 9.054e-10
0.015, 9.296e-10
0.016, 9.413e-10
0.017, 9.372e-10
0.018, 9.472e-10
0.019, 9.745e-10
0.020, 9.681e-10
0.021, 9.757e-10
0.022, 9.905e-10
0.023, 9.998e-10
0.024, 1.001e-9
0.025, 1.018e-9
0.026, 1.008e-9
0.027, 1.008e-9
0.028, 1.014e-9
0.029, 1.023e-9
0.030, 1.032e-9
0.031, 1.054e-9
0.032, 1.050e-9
0.033, 1.042e-9
0.034, 1.050e-9
0.035, 1.048e-9
0.036, 1.051e-9
0.037, 1.053e-9
0.038, 1.060e-9
0.039, 1.069e-9
0.040, 1.070e-9
0.041, 1.083e-9
0.042, 1.076e-9
0.043, 1.072e-9
0.044, 1.082e-9
0.045, 1.092e-9
0.046, 1.105e-9
0.047, 1.106e-9
0.048, 1.125e-9
0.049, 1.163e-9
0.050, 1.202e-9
0.051, 1.217e-9
0.052, 1.219e-9
0.053, 1.212e-9
0.054, 1.215e-9
0.055, 1.230e-9
0.056, 1.220e-9
0.057, 1.225e-9
0.058, 1.228e-9
0.059, 1.243e-9
0.060, 1.262e-9
0.061, 1.274e-9
0.062, 1.277e-9
0.063, 1.282e-9
0.064, 1.339e-9
0.065, 1.426e-9
0.066, 1.458e-9
0.067, 1.474e-9
0.068, 1.512e-9
0.069, 1.608e-9
0.070, 1.727e-9
0.071, 1.897e-9
0.072, 2.136e-9
0.073, 2.438e-9
0.074, 2.651e-9
0.075, 2.841e-9
0.076, 2.619e-9
0.077, 2.074e-9
0.078, 2.094e-9
0.079, 1.845e-9
0.080, 1.469e-9
0.081, 1.452e-9
0.082, 1.453e-9
0.083, 1.430e-9
0.084, 1.442e-9
0.085, 1.433e-9
0.086, 1.409e-9
0.087, 1.370e-9
0.088, 1.339e-9
0.089, 1.301e-9
0.090, 1.273e-9
0.091, 1.277e-9
0.092, 1.431e-9
0.093, 1.825e-9
0.094, 1.654e-9
0.095, 1.339e-9
0.096, 1.223e-9
0.097, 1.220e-9
0.098, 1.229e-9
0.099, 1.221e-9
0.100, 1.229e-9
0.101, 1.231e-9
0.102, 1.241e-9
0.103, 1.246e-9
0.104, 1.247e-9
0.105, 1.252e-9
0.106, 1.238e-9
0.107, 1.228e-9
0.108, 1.241e-9
0.109, 1.246e-9
0.110, 1.246e-9
0.111, 1.250e-9
0.112, 1.249e-9
0.113, 1.251e-9
0.114, 1.251e-9
0.115, 1.240e-9
0.116, 1.270e-9
0.117, 1.319e-9
0.118, 1.363e-9
0.119, 1.367e-9
0.120, 1.281e-9
0.121, 1.266e-9
0.122, 1.262e-9
0.123, 1.264e-9
0.124, 1.275e-9
0.125, 1.274e-9
0.126, 1.284e-9
0.127, 1.285e-9
0.128, 1.315e-9
0.129, 1.360e-9
0.130, 1.315e-9
0.131, 1.296e-9
0.132, 1.303e-9
0.133, 1.318e-9
0.134, 1.424e-9
0.135, 1.082e-9
0.136, 8.895e-10
0.137, 9.008e-10
0.138, 9.350e-10
0.139, 9.373e-10
0.140, 9.127e-10
0.141, 9.336e-10
0.142, 9.490e-10
0.143, 9.586e-10
0.144, 9.681e-10
0.145, 9.803e-10
0.146, 9.827e-10
0.147, 9.830e-10
0.148, 9.757e-10
0.149, 9.728e-10
0.150, 9.692e-10
0.151, 9.771e-10
0.152, 9.694e-10
0.153, 9.809e-10
0.154, 9.861e-10
0.155, 1.050e-9
0.156, 1.125e-9
0.157, 1.140e-9
0.158, 1.141e-9
0.159, 1.144e-9
0.160, 1.152e-9
0.161, 1.145e-9
0.162, 1.144e-9
0.163, 1.146e-9
0.164, 1.141e-9
0.165, 1.140e-9
0.166, 1.146e-9
0.167, 1.153e-9
0.168, 1.192e-9
0.169, 1.241e-9
0.170, 1.274e-9
0.171, 1.283e-9
0.172, 1.264e-9
0.173, 1.260e-9
0.174, 1.259e-9
0.175, 1.255e-9
0.176, 1.265e-9
0.177, 1.268e-9
0.178, 1.268e-9
0.179, 1.271e-9
0.180, 1.277e-9
0.181, 1.277e-9
0.182, 1.278e-9
0.183, 1.294e-9
0.184, 1.300e-9
0.185, 1.305e-9
0.186, 1.307e-9
0.187, 1.304e-9
0.188, 1.308e-9
0.189, 1.311e-9
0.190, 1.336e-9
0.191, 1.324e-9
0.192, 1.319e-9
0.193, 1.326e-9
0.194, 1.352e-9
0.195, 1.363e-9
0.196, 1.355e-9
0.197, 1.366e-9
0.198, 1.373e-9
0.199, 1.378e-9
0.200, 1.366e-9
0.201, 1.378e-9
0.202, 1.379e-9
0.203, 1.387e-9
0.204, 1.434e-9
0.205, 1.547e-9
0.206, 1.594e-9
0.207, 1.465e-9
0.208, 1.379e-9
0.209, 1.373e-9
0.210, 1.374e-9
0.211, 1.378e-9
0.212, 1.371e-9
0.213, 1.372e-9
0.214, 1.376e-9
0.215, 1.387e-9
0.216, 1.420e-9
0.217, 1.398e-9
0.218, 1.384e-9
0.219, 1.378e-9
0.220, 1.382e-9
0.221, 1.396e-9
0.222, 1.401e-9
0.223, 1.406e-9
0.224, 1.422e-9
0.225, 1.445e-9
0.226, 1.443e-9
0.227, 1.420e-9
0.228, 1.413e-9
0.229, 1.427e-9
0.230, 1.438e-9
0.231, 1.457e-9
0.232, 1.447e-9
0.233, 1.447e-9
0.234, 1.441e-9
0.235, 1.447e-9
0.236, 1.454e-9
0.237, 1.443e-9
0.238, 1.440e-9
0.239, 1.457e-9
0.240, 1.459e-9
0.241, 1.473e-9
0.242, 1.473e-9
0.243, 1.474e-9
0.244, 1.473e-9
0.245, 1.473e-9
0.246, 1.481e-9
0.247, 1.473e-9
0.248, 1.471e-9
0.249, 1.475e-9
0.250, 1.476e-9
0.251, 1.476e-9
0.252, 1.478e-9
0.253, 1.510e-9
0.254, 1.488e-9
0.255, 1.486e-9
0.256, 1.490e-9
0.257, 1.486e-9
0.258, 1.480e-9
0.259, 1.483e-9
0.260, 1.493e-9
0.261, 1.484e-9
0.262, 1.494e-9
0.263, 1.531e-9
0.264, 1.535e-9
0.265, 1.520e-9
0.266, 1.513e-9
0.267, 1.508e-9
0.268, 1.509e-9
0.269, 1.501e-9
0.270, 1.489e-9
0.271, 1.496e-9
0.272, 1.508e-9
0.273, 1.508e-9
0.274, 1.503e-9
0.275, 1.516e-9
0.276, 1.507e-9
0.277, 1.507e-9
0.278, 1.521e-9
0.279, 1.518e-9
0.280, 1.523e-9
0.281, 1.548e-9
0.282, 1.578e-9
0.283, 1.581e-9
0.284, 1.554e-9
0.285, 1.579e-9
0.286, 1.625e-9
0.287, 1.600e-9
0.288, 1.585e-9
0.289, 1.594e-9
0.290, 1.594e-9
0.291, 1.594e-9
0.292, 1.594e-9
0.293, 1.576e-9
0.294, 1.565e-9
0.295, 1.565e-9
0.296, 1.560e-9
0.297, 1.558e-9
0.298, 1.562e-9
0.299, 1.567e-9
0.300, 1.581e-9
0.301, 1.601e-9
0.302, 1.610e-9
0.303, 1.609e-9
0.304, 1.634e-9
0.305, 1.618e-9
0.306, 1.608e-9
0.307, 1.616e-9
0.308, 1.615e-9
0.309, 1.609e-9
0.310, 1.595e-9
0.311, 1.606e-9
0.312, 1.608e-9
0.313, 1.630e-9
0.314, 1.643e-9
0.315, 1.639e-9
0.316, 1.618e-9
0.317, 1.604e-9
0.318, 1.586e-9
0.319, 1.593e-9
0.320, 1.598e-9
0.321, 1.604e-9
0.322, 1.622e-9
0.323, 1.614e-9
0.324, 1.607e-9
0.325, 1.630e-9
0.326, 1.642e-9
0.327, 1.633e-9
0.328, 1.626e-9
0.329, 1.627e-9
0.330, 1.631e-9
0.331, 1.625e-9
0.332, 1.646e-9
0.333, 1.674e-9
0.334, 1.653e-9
0.335, 1.626e-9
0.336, 1.635e-9
0.337, 1.648e-9
0.338, 1.692e-9
0.339, 1.682e-9
0.340, 1.656e-9
0.341, 1.656e-9
0.342, 1.676e-9
0.343, 1.665e-9
0.344, 1.682e-9
0.345, 1.691e-9
0.346, 1.675e-9
0.347, 1.678e-9
0.348, 1.684e-9
0.349, 1.695e-9
0.350, 1.701e-9
0.351, 1.691e-9
0.352, 1.701e-9
0.353, 1.718e-9
0.354, 1.717e-9
0.355, 1.701e-9
0.356, 1.704e-9
0.357, 1.694e-9
0.358, 1.687e-9
0.359, 1.687e-9
0.360, 1.693e-9
0.361, 1.695e-9
0.362, 1.693e-9
0.363, 1.700e-9
0.364, 1.701e-9
0.365, 1.717e-9
0.366, 1.721e-9
0.367, 1.780e-9
0.368, 1.763e-9
0.369, 1.760e-9
0.370, 1.752e-9
0.371, 1.732e-9
0.372, 1.746e-9
0.373, 1.747e-9
0.374, 1.730e-9
0.375, 1.724e-9
0.376, 1.720e-9
0.377, 1.732e-9
0.378, 1.736e-9
0.379, 1.736e-9
0.380, 1.734e-9
0.381, 1.722e-9
0.382, 1.709e-9
0.383, 1.726e-9
0.384, 1.743e-9
0.385, 1.749e-9
0.386, 1.748e-9
0.387, 1.736e-9
0.388, 1.728e-9
0.389, 1.712e-9
0.390, 1.720e-9
0.391, 1.755e-9
0.392, 1.738e-9
0.393, 1.729e-9
0.394, 1.725e-9
0.395, 1.714e-9
0.396, 1.709e-9
0.397, 1.727e-9
0.398, 1.739e-9
0.399, 1.735e-9
0.400, 1.707e-9
0.401, 1.709e-9
0.402, 1.709e-9
0.403, 1.712e-9
0.404, 1.720e-9
0.405, 1.728e-9
0.406, 1.715e-9
0.407, 1.707e-9
0.408, 1.709e-9
0.409, 1.717e-9
0.410, 1.727e-9
0.411, 1.712e-9
0.412, 1.702e-9
0.413, 1.698e-9
0.414, 1.696e-9
0.415, 1.706e-9
0.416, 1.701e-9
0.417, 1.710e-9
0.418, 1.713e-9
0.419, 1.720e-9
0.420, 1.732e-9
0.421, 1.728e-9
0.422, 1.718e-9
0.423, 1.720e-9
0.424, 1.729e-9
0.425, 1.731e-9
0.426, 1.733e-9
0.427, 1.745e-9
0.428, 1.746e-9
0.429, 1.727e-9
0.430, 1.728e-9
0.431, 1.733e-9
0.432, 1.731e-9
0.433, 1.729e-9
0.434, 1.725e-9
0.435, 1.737e-9
0.436, 1.745e-9
0.437, 1.745e-9
0.438, 1.749e-9
0.439, 1.764e-9
0.440, 1.980e-9
0.441, 2.026e-9
0.442, 1.980e-9
0.443, 1.953e-9
0.444, 1.962e-9
0.445, 1.938e-9
0.446, 1.914e-9
0.447, 1.913e-9
0.448, 1.922e-9
0.449, 1.919e-9
0.450, 1.914e-9
0.451, 1.925e-9
0.452, 1.939e-9
0.453, 1.929e-9
0.454, 1.892e-9
0.455, 1.892e-9
0.456, 1.891e-9
0.457, 1.883e-9
0.458, 1.893e-9
0.459, 1.909e-9
0.460, 1.915e-9
0.461, 1.904e-9
0.462, 1.904e-9
0.463, 1.900e-9
0.464, 1.901e-9
0.465, 1.895e-9
0.466, 1.907e-9
0.467, 1.924e-9
0.468, 1.927e-9
0.469, 1.919e-9
0.470, 1.902e-9
0.471, 1.900e-9
0.472, 1.908e-9
0.473, 1.930e-9
0.474, 1.939e-9
0.475, 1.932e-9
0.476, 1.884e-9
0.477, 1.749e-9
0.478, 1.744e-9
0.479, 1.852e-9
0.480, 1.917e-9
0.481, 1.834e-9
0.482, 1.861e-9
0.483, 1.848e-9
0.484, 1.848e-9
0.485, 1.852e-9
0.486, 1.854e-9
0.487, 1.867e-9
0.488, 1.868e-9
0.489, 1.859e-9
0.490, 1.850e-9
0.491, 1.855e-9
0.492, 1.853e-9
0.493, 1.854e-9
0.494, 1.845e-9
0.495, 1.849e-9
0.496, 1.857e-9
0.497, 1.860e-9
0.498, 1.868e-9
0.499, 1.880e-9
0.500, 1.894e-9
0.499, 1.852e-9
0.498, 1.824e-9
0.497, 1.791e-9
0.496, 1.745e-9
0.495, 1.709e-9
0.494, 1.721e-9
0.493, 1.701e-9
0.492, 1.667e-9
0.491, 1.645e-9
0.490, 1.613e-9
0.489, 1.587e-9
0.488, 1.587e-9
0.487, 1.568e-9
0.486, 1.544e-9
0.485, 1.520e-9
0.484, 1.513e-9
0.483, 1.487e-9
0.482, 1.466e-9
0.481, 1.447e-9
0.480, 1.422e-9
0.479, 1.419e-9
0.478, 1.410e-9
0.477, 1.383e-9
0.476, 1.367e-9
0.475, 1.349e-9
0.474, 1.331e-9
0.473, 1.328e-9
0.472, 1.332e-9
0.471, 1.340e-9
0.470, 1.320e-9
0.469, 1.313e-9
0.468, 1.296e-9
0.467, 1.269e-9
0.466, 1.262e-9
0.465, 1.250e-9
0.464, 1.227e-9
0.463, 1.215e-9
0.462, 1.205e-9
0.461, 1.193e-9
0.460, 1.184e-9
0.459, 1.178e-9
0.458, 1.168e-9
0.457, 1.151e-9
0.456, 1.137e-9
0.455, 1.129e-9
0.454, 1.122e-9
0.453, 1.116e-9
0.452, 1.104e-9
0.451, 1.099e-9
0.450, 1.090e-9
0.449, 1.084e-9
0.448, 1.082e-9
0.447, 1.058e-9
0.446, 1.056e-9
0.445, 1.048e-9
0.444, 1.040e-9
0.443, 1.042e-9
0.442, 1.028e-9
0.441, 1.018e-9
0.440, 1.011e-9
0.439, 9.973e-10
0.438, 9.895e-10
0.437, 9.802e-10
0.436, 9.805e-10
0.435, 9.787e-10
0.434, 9.696e-10
0.433, 9.734e-10
0.432, 9.774e-10
0.431, 9.700e-10
0.430, 9.688e-10
0.429, 9.621e-10
0.428, 9.504e-10
0.427, 9.494e-10
0.426, 9.486e-10
0.425, 9.402e-10
0.424, 9.529e-10
0.423, 9.392e-10
0.422, 9.172e-10
0.421, 9.021e-10
0.420, 8.952e-10
0.419, 8.870e-10
0.418, 8.733e-10
0.417, 8.588e-10
0.416, 8.553e-10
0.415, 8.560e-10
0.414, 8.449e-10
0.413, 8.301e-10
0.412, 8.265e-10
0.411, 8.241e-10
0.410, 8.099e-10
0.409, 8.018e-10
0.408, 8.084e-10
0.407, 8.056e-10
0.406, 7.954e-10
0.405, 8.089e-10
0.404, 8.361e-10
0.403, 8.406e-10
0.402, 8.248e-10
0.401, 9.180e-10
0.400, 8.821e-10
0.399, 7.928e-10
0.398, 7.627e-10
0.397, 7.572e-10
0.396, 7.423e-10
0.395, 7.319e-10
0.394, 7.335e-10
0.393, 7.412e-10
0.392, 7.413e-10
0.391, 7.226e-10
0.390, 7.124e-10
0.389, 7.170e-10
0.388, 7.740e-10
0.387, 7.752e-10
0.386, 7.549e-10
0.385, 7.456e-10
0.384, 7.492e-10
0.383, 7.243e-10
0.382, 7.006e-10
0.381, 6.894e-10
0.380, 6.788e-10
0.379, 6.684e-10
0.378, 6.569e-10
0.377, 6.529e-10
0.376, 6.399e-10
0.375, 6.306e-10
0.374, 6.278e-10
0.373, 6.267e-10
0.372, 6.221e-10
0.371, 6.209e-10
0.370, 6.250e-10
0.369, 6.201e-10
0.368, 6.181e-10
0.367, 6.087e-10
0.366, 5.964e-10
0.365, 5.996e-10
0.364, 5.911e-10
0.363, 5.793e-10
0.362, 5.825e-10
0.361, 5.894e-10
0.360, 5.820e-10
0.359, 5.696e-10
0.358, 5.660e-10
0.357, 5.563e-10
0.356, 5.558e-10
0.355, 5.533e-10
0.354, 5.386e-10
0.353, 5.349e-10
0.352, 5.311e-10
0.351, 5.286e-10
0.350, 5.280e-10
0.349, 5.188e-10
0.348, 5.181e-10
0.347, 5.106e-10
0.346, 5.041e-10
0.345, 4.880e-10
0.344, 4.913e-10
0.343, 4.944e-10
0.342, 4.824e-10
0.341, 4.856e-10
0.340, 4.814e-10
0.339, 4.883e-10
0.338, 4.889e-10
0.337, 4.722e-10
0.336, 4.637e-10
0.335, 4.507e-10
0.334, 4.365e-10
0.333, 4.420e-10
0.332, 4.784e-10
0.331, 4.651e-10
0.330, 4.570e-10
0.329, 4.429e-10
0.328, 4.274e-10
0.327, 4.259e-10
0.326, 4.178e-10
0.325, 4.099e-10
0.324, 4.071e-10
0.323, 4.021e-10
0.322, 4.089e-10
0.321, 3.999e-10
0.320, 3.883e-10
0.319, 4.057e-10
0.318, 4.104e-10
0.317, 3.791e-10
0.316, 3.694e-10
0.315, 3.657e-10
0.314, 3.672e-10
0.313, 3.678e-10
0.312, 3.573e-10
0.311, 3.492e-10
0.310, 3.513e-10
0.309, 3.466e-10
0.308, 3.408e-10
0.307, 3.381e-10
0.306, 3.286e-10
0.305, 3.279e-10
0.304, 3.273e-10
0.303, 3.182e-10
0.302, 3.120e-10
0.301, 3.039e-10
0.300, 3.048e-10
0.299, 3.015e-10
0.298, 2.948e-10
0.297, 2.903e-10
0.296, 2.882e-10
0.295, 2.848e-10
0.294, 2.133e-10
0.293, 1.699e-10
0.292, 1.844e-10
0.291, 1.903e-10
0.290, 1.984e-10
0.289, 1.985e-10
0.288, 2.007e-10
0.287, 2.010e-10
0.286, 2.088e-10
0.285, 2.203e-10
0.284, 2.094e-10
0.283, 2.039e-10
0.282, 1.989e-10
0.281, 1.948e-10
0.280, 1.906e-10
0.279, 1.873e-10
0.278, 1.888e-10
0.277, 1.823e-10
0.276, 1.777e-10
0.275, 1.739e-10
0.274, 1.708e-10
0.273, 1.675e-10
0.272, 1.682e-10
0.271, 1.623e-10
0.270, 1.600e-10
0.269, 1.588e-10
0.268, 1.569e-10
0.267, 1.604e-10
0.266, 1.614e-10
0.265, 1.536e-10
0.264, 1.469e-10
0.263, 1.412e-10
0.262, 1.396e-10
0.261, 1.348e-10
0.260, 1.341e-10
0.259, 1.359e-10
0.258, 1.296e-10
0.257, 1.294e-10
0.256, 1.248e-10
0.255, 1.242e-10
0.254, 1.199e-10
0.253, 1.159e-10
0.252, 1.117e-10
0.251, 1.069e-10
0.250, 1.050e-10
0.249, 9.976e-11
0.248, 9.684e-11
0.247, 9.440e-11
0.246, 9.187e-11
0.245, 8.904e-11
0.244, 8.943e-11
0.243, 8.602e-11
0.242, 8.124e-11
0.241, 7.958e-11
0.240, 7.871e-11
0.239, 7.159e-11
0.238, 6.779e-11
0.237, 6.496e-11
0.236, 7.169e-11
0.235, 9.703e-11
0.234, 9.040e-11
0.233, 8.378e-11
0.232, 7.637e-11
0.231, 6.681e-11
0.230, 6.350e-11
0.229, 5.677e-11
0.228, 4.927e-11
0.227, 4.547e-11
0.226, 4.712e-11
0.225, 4.244e-11
0.224, 3.864e-11
0.223, 3.484e-11
0.222, 3.309e-11
0.221, 2.850e-11
0.220, 2.285e-11
0.219, 1.993e-11
0.218, 2.002e-11
0.217, 1.681e-11
0.216, 1.339e-11
0.215, 6.375e-12
0.214, 8.422e-12
0.213, 7.740e-12
0.212, 4.913e-12
0.211, 1.404e-12
0.210, -2.690e-12
0.209, -4.543e-12
0.208, -6.005e-12
0.207, -1.322e-11
0.206, -1.556e-11
0.205, -2.287e-11
0.204, -3.077e-11
0.203, -3.388e-11
0.202, -3.515e-11
0.201, -4.120e-11
0.200, -4.237e-11
0.199, -4.490e-11
0.198, -4.860e-11
0.197, -5.202e-11
0.196, -5.436e-11
0.195, -5.884e-11
0.194, -6.293e-11
0.193, -6.771e-11
0.192, -7.288e-11
0.191, -7.580e-11
0.190, -7.668e-11
0.189, -8.019e-11
0.188, -8.311e-11
0.187, -8.721e-11
0.186, -9.003e-11
0.185, -8.925e-11
0.184, -9.052e-11
0.183, -9.559e-11
0.182, -9.900e-11
0.181, -1.007e-10
0.180, -1.016e-10
0.179, -1.016e-10
0.178, -1.030e-10
0.177, -1.090e-10
0.176, -1.146e-10
0.175, -1.145e-10
0.174, -1.160e-10
0.173, -1.196e-10
0.172, -1.219e-10
0.171, -1.262e-10
0.170, -1.289e-10
0.169, -1.314e-10
0.168, -1.359e-10
0.167, -1.375e-10
0.166, -1.399e-10
0.165, -1.421e-10
0.164, -1.299e-10
0.163, -1.425e-10
0.162, -1.497e-10
0.161, -1.475e-10
0.160, -1.435e-10
0.159, -1.482e-10
0.158, -1.505e-10
0.157, -1.549e-10
0.156, -1.603e-10
0.155, -1.629e-10
0.154, -1.680e-10
0.153, -1.731e-10
0.152, -1.769e-10
0.151, -1.794e-10
0.150, -1.813e-10
0.149, -1.846e-10
0.148, -1.902e-10
0.147, -1.937e-10
0.146, -1.956e-10
0.145, -1.985e-10
0.144, -2.033e-10
0.143, -2.067e-10
0.142, -2.100e-10
0.141, -2.139e-10
0.140, -2.159e-10
0.139, -2.172e-10
0.138, -2.216e-10
0.137, -2.249e-10
0.136, -2.285e-10
0.135, -2.313e-10
0.134, -2.343e-10
0.133, -2.240e-10
0.132, -2.228e-10
0.131, -2.382e-10
0.130, -2.449e-10
0.129, -2.470e-10
0.128, -2.496e-10
0.127, -2.522e-10
0.126, -2.533e-10
0.125, -2.560e-10
0.124, -2.555e-10
0.123, -2.537e-10
0.122, -2.598e-10
0.121, -2.679e-10
0.120, -2.745e-10
0.119, -2.766e-10
0.118, -2.836e-10
0.117, -2.854e-10
0.116, -2.876e-10
0.115, -2.909e-10
0.114, -2.946e-10
0.113, -2.988e-10
0.112, -3.002e-10
0.111, -2.998e-10
0.110, -3.053e-10
0.109, -3.107e-10
0.108, -3.111e-10
0.107, -3.047e-10
0.106, -3.134e-10
0.105, -3.181e-10
0.104, -3.203e-10
0.103, -3.212e-10
0.102, -3.217e-10
0.101, -3.291e-10
0.100, -3.308e-10
0.099, -3.315e-10
0.098, -3.324e-10
0.097, -3.357e-10
0.096, -3.401e-10
0.095, -3.434e-10
0.094, -3.462e-10
0.093, -3.510e-10
0.092, -3.522e-10
0.091, -3.539e-10
0.090, -3.542e-10
0.089, -3.560e-10
0.088, -3.569e-10
0.087, -3.523e-10
0.086, -3.468e-10
0.085, -3.472e-10
0.084, -3.508e-10
0.083, -3.522e-10
0.082, -3.530e-10
0.081, -3.559e-10
0.080, -3.580e-10
0.079, -3.631e-10
0.078, -3.648e-10
0.077, -3.666e-10
0.076, -3.673e-10
0.075, -3.709e-10
0.074, -3.781e-10
0.073, -3.829e-10
0.072, -3.856e-10
0.071, -3.882e-10
0.070, -3.913e-10
0.069, -3.958e-10
0.068, -3.999e-10
0.067, -4.016e-10
0.066, -4.054e-10
0.065, -4.080e-10
0.064, -4.098e-10
0.063, -4.120e-10
0.062, -4.145e-10
0.061, -4.174e-10
0.060, -4.223e-10
0.059, -4.244e-10
0.058, -4.253e-10
0.057, -4.275e-10
0.056, -4.311e-10
0.055, -4.328e-10
0.054, -4.339e-10
0.053, -4.382e-10
0.052, -4.406e-10
0.051, -4.365e-10
0.050, -4.437e-10
0.049, -4.479e-10
0.048, -4.500e-10
0.047, -4.518e-10
0.046, -4.534e-10
0.045, -4.540e-10
0.044, -4.571e-10
0.043, -4.601e-10
0.042, -4.608e-10
0.041, -4.640e-10
0.040, -4.664e-10
0.039, -4.703e-10
0.038, -4.721e-10
0.037, -4.729e-10
0.036, -4.758e-10
0.035, -4.782e-10
0.034, -4.829e-10
0.033, -4.861e-10
0.032, -4.880e-10
0.031, -4.924e-10
0.030, -4.949e-10
0.029, -4.980e-10
0.028, -4.984e-10
0.027, -5.027e-10
0.026, -5.050e-10
0.025, -5.090e-10
0.024, -5.134e-10
0.023, -5.168e-10
0.022, -5.196e-10
0.021, -5.227e-10
0.020, -5.271e-10
0.019, -5.286e-10
0.018, -5.304e-10
0.017, -5.343e-10
0.016, -5.384e-10
0.015, -5.418e-10
0.014, -5.426e-10
0.013, -5.462e-10
0.012, -5.489e-10
0.011, -5.505e-10
0.010, -5.529e-10
0.009, -5.561e-10
0.008, -5.578e-10
0.007, -5.592e-10
0.006, -5.629e-10
0.005, -5.662e-10
0.004, -5.685e-10
0.003, -5.711e-10
0.002, -5.730e-10
0.001, -5.758e-10
-0.000, -5.742e-10
-0.001, -5.761e-10
-0.002, -5.797e-10
-0.003, -5.791e-10
-0.004, -5.696e-10
-0.005, -5.688e-10
-0.006, -5.744e-10
-0.007, -5.792e-10
-0.008, -5.838e-10
-0.009, -5.865e-10
-0.010, -5.889e-10
-0.011, -5.927e-10
-0.012, -5.970e-10
-0.013, -6.002e-10
-0.014, -6.048e-10
-0.015, -6.106e-10
-0.016, -6.169e-10
-0.017, -6.222e-10
-0.018, -6.283e-10
-0.019, -6.356e-10
-0.020, -6.431e-10
-0.021, -6.476e-10
-0.022, -6.558e-10
-0.023, -6.613e-10
-0.024, -6.679e-10
-0.025, -6.724e-10
-0.026, -6.784e-10
-0.027, -6.840e-10
-0.028, -6.888e-10
-0.029, -6.957e-10
-0.030, -6.984e-10
-0.031, -7.042e-10
-0.032, -7.074e-10
-0.033, -7.102e-10
-0.034, -7.149e-10
-0.035, -7.211e-10
-0.036, -7.308e-10
-0.037, -7.456e-10
-0.038, -7.559e-10
-0.039, -7.537e-10
-0.040, -7.685e-10
-0.041, -7.852e-10
-0.042, -7.949e-10
-0.043, -8.107e-10
-0.044, -8.275e-10
-0.045, -8.434e-10
-0.046, -8.399e-10
-0.047, -8.408e-10
-0.048, -8.717e-10
-0.049, -8.857e-10
-0.050, -8.741e-10
-0.051, -8.967e-10
-0.052, -9.618e-10
-0.053, -9.435e-10
-0.054, -9.109e-10
-0.055, -9.187e-10
-0.056, -9.377e-10
-0.057, -9.347e-10
-0.058, -9.194e-10
-0.059, -9.183e-10
-0.060, -9.151e-10
-0.061, -9.167e-10
-0.062, -8.713e-10
-0.063, -8.001e-10
-0.064, -7.574e-10
-0.065, -7.425e-10
-0.066, -7.440e-10
-0.067, -7.359e-10
-0.068, -7.204e-10
-0.069, -7.163e-10
-0.070, -7.184e-10
-0.071, -7.256e-10
-0.072, -7.375e-10
-0.073, -7.346e-10
-0.074, -7.274e-10
-0.075, -7.184e-10
-0.076, -7.172e-10
-0.077, -7.202e-10
-0.078, -7.314e-10
-0.079, -7.317e-10
-0.080, -7.537e-10
-0.081, -7.874e-10
-0.082, -7.686e-10
-0.083, -7.389e-10
-0.084, -7.422e-10
-0.085, -7.456e-10
-0.086, -7.463e-10
-0.087, -7.638e-10
-0.088, -7.812e-10
-0.089, -8.192e-10
-0.090, -9.412e-10
-0.091, -9.974e-10
-0.092, -1.273e-9
-0.093, -1.709e-9
-0.094, -1.201e-9
-0.095, -9.572e-10
-0.096, -8.172e-10
-0.097, -7.905e-10
-0.098, -8.087e-10
-0.099, -1.102e-9
-0.100, -1.531e-9
-0.101, -1.549e-9
-0.102, -1.028e-9
-0.103, -8.250e-10
-0.104, -7.664e-10
-0.105, -7.607e-10
-0.106, -7.590e-10
-0.107, -7.616e-10
-0.108, -7.792e-10
-0.109, -8.556e-10
-0.110, -8.452e-10
-0.111, -7.841e-10
-0.112, -7.899e-10
-0.113, -8.010e-10
-0.114, -8.087e-10
-0.115, -8.121e-10
-0.116, -8.167e-10
-0.117, -8.178e-10
-0.118, -8.182e-10
-0.119, -8.209e-10
-0.120, -8.237e-10
-0.121, -8.636e-10
-0.122, -8.433e-10
-0.123, -8.069e-10
-0.124, -8.006e-10
-0.125, -7.955e-10
-0.126, -7.972e-10
-0.127, -7.964e-10
-0.128, -8.055e-10
-0.129, -8.127e-10
-0.130, -8.148e-10
-0.131, -8.215e-10
-0.132, -8.267e-10
-0.133, -8.338e-10
-0.134, -8.424e-10
-0.135, -8.475e-10
-0.136, -8.715e-10
-0.137, -8.677e-10
-0.138, -9.244e-10
-0.139, -1.387e-9
-0.140, -1.670e-9
-0.141, -1.413e-9
-0.142, -1.241e-9
-0.143, -1.042e-9
-0.144, -1.023e-9
-0.145, -9.468e-10
-0.146, -9.095e-10
-0.147, -9.053e-10
-0.148, -9.064e-10
-0.149, -9.044e-10
-0.150, -9.069e-10
-0.151, -9.098e-10
-0.152, -9.074e-10
-0.153, -9.069e-10
-0.154, -9.072e-10
-0.155, -9.125e-10
-0.156, -9.183e-10
-0.157, -9.197e-10
-0.158, -9.248e-10
-0.159, -9.304e-10
-0.160, -9.372e-10
-0.161, -9.342e-10
-0.162, -9.325e-10
-0.163, -9.421e-10
-0.164, -9.518e-10
-0.165, -9.567e-10
-0.166, -9.638e-10
-0.167, -9.633e-10
-0.168, -9.607e-10
-0.169, -9.617e-10
-0.170, -9.595e-10
-0.171, -9.609e-10
-0.172, -9.641e-10
-0.173, -9.693e-10
-0.174, -9.729e-10
-0.175, -9.750e-10
-0.176, -9.708e-10
-0.177, -9.615e-10
-0.178, -9.467e-10
-0.179, -9.467e-10
-0.180, -9.486e-10
-0.181, -9.510e-10
-0.182, -9.512e-10
-0.183, -9.522e-10
-0.184, -9.563e-10
-0.185, -9.541e-10
-0.186, -9.567e-10
-0.187, -9.574e-10
-0.188, -9.589e-10
-0.189, -9.678e-10
-0.190, -9.689e-10
-0.191, -9.763e-10
-0.192, -9.817e-10
-0.193, -9.853e-10
-0.194, -9.817e-10
-0.195, -9.829e-10
-0.196, -9.836e-10
-0.197, -9.900e-10
-0.198, -9.846e-10
-0.199, -9.836e-10
-0.200, -9.932e-10
-0.201, -1.010e-9
-0.202, -1.011e-9
-0.203, -1.002e-9
-0.204, -1.014e-9
-0.205, -1.012e-9
-0.206, -1.003e-9
-0.207, -1.004e-9
-0.208, -1.007e-9
-0.209, -1.016e-9
-0.210, -1.025e-9
-0.211, -1.021e-9
-0.212, -1.025e-9
-0.213, -1.030e-9
-0.214, -1.032e-9
-0.215, -1.037e-9
-0.216, -1.043e-9
-0.217, -1.055e-9
-0.218, -1.055e-9
-0.219, -1.055e-9
-0.220, -1.057e-9
-0.221, -1.061e-9
-0.222, -1.056e-9
-0.223, -1.061e-9
-0.224, -1.084e-9
-0.225, -1.090e-9
-0.226, -1.090e-9
-0.227, -1.111e-9
-0.228, -1.117e-9
-0.229, -1.095e-9
-0.230, -1.088e-9
-0.231, -1.087e-9
-0.232, -1.085e-9
-0.233, -1.083e-9
-0.234, -1.081e-9
-0.235, -1.081e-9
-0.236, -1.081e-9
-0.237, -1.079e-9
-0.238, -1.079e-9
-0.239, -1.083e-9
-0.240, -1.083e-9
-0.241, -1.079e-9
-0.242, -1.080e-9
-0.243, -1.079e-9
-0.244, -1.080e-9
-0.245, -1.080e-9
-0.246, -1.114e-9
-0.247, -1.157e-9
-0.248, -1.160e-9
-0.249, -1.164e-9
-0.250, -1.154e-9
-0.251, -1.146e-9
-0.252, -1.132e-9
-0.253, -1.126e-9
-0.254, -1.127e-9
-0.255, -1.128e-9
-0.256, -1.128e-9
-0.257, -1.127e-9
-0.258, -1.130e-9
-0.259, -1.132e-9
-0.260, -1.131e-9
-0.261, -1.130e-9
-0.262, -1.130e-9
-0.263, -1.131e-9
-0.264, -1.130e-9
-0.265, -1.130e-9
-0.266, -1.129e-9
-0.267, -1.130e-9
-0.268, -1.131e-9
-0.269, -1.130e-9
-0.270, -1.131e-9
-0.271, -1.130e-9
-0.272, -1.131e-9
-0.273, -1.130e-9
-0.274, -1.132e-9
-0.275, -1.133e-9
-0.276, -1.132e-9
-0.277, -1.131e-9
-0.278, -1.130e-9
-0.279, -1.132e-9
-0.280, -1.134e-9
-0.281, -1.135e-9
-0.282, -1.134e-9
-0.283, -1.136e-9
-0.284, -1.134e-9
-0.285, -1.135e-9
-0.286, -1.138e-9
-0.287, -1.139e-9
-0.288, -1.139e-9
-0.289, -1.139e-9
-0.290, -1.138e-9
-0.291, -1.140e-9
-0.292, -1.141e-9
-0.293, -1.140e-9
-0.294, -1.141e-9
-0.295, -1.142e-9
-0.296, -1.145e-9
-0.297, -1.145e-9
-0.298, -1.145e-9
-0.299, -1.145e-9
-0.300, -1.145e-9
-0.301, -1.144e-9
-0.302, -1.146e-9
-0.303, -1.147e-9
-0.304, -1.145e-9
-0.305, -1.149e-9
-0.306, -1.150e-9
-0.307, -1.152e-9
-0.308, -1.153e-9
-0.309, -1.152e-9
-0.310, -1.152e-9
-0.311, -1.149e-9
-0.312, -1.150e-9
-0.313, -1.152e-9
-0.314, -1.151e-9
-0.315, -1.153e-9
-0.316, -1.155e-9
-0.317, -1.156e-9
-0.318, -1.157e-9
-0.319, -1.158e-9
-0.320, -1.159e-9
-0.321, -1.158e-9
-0.322, -1.158e-9
-0.323, -1.157e-9
-0.324, -1.159e-9
-0.325, -1.162e-9
-0.326, -1.163e-9
-0.327, -1.161e-9
-0.328, -1.162e-9
-0.329, -1.163e-9
-0.330, -1.163e-9
-0.331, -1.165e-9
-0.332, -1.164e-9
-0.333, -1.166e-9
-0.334, -1.167e-9
-0.335, -1.168e-9
-0.336, -1.168e-9
-0.337, -1.169e-9
-0.338, -1.170e-9
-0.339, -1.170e-9
-0.340, -1.173e-9
-0.341, -1.173e-9
-0.342, -1.174e-9
-0.343, -1.175e-9
-0.344, -1.173e-9
-0.345, -1.174e-9
-0.346, -1.172e-9
-0.347, -1.175e-9
-0.348, -1.176e-9
-0.349, -1.177e-9
-0.350, -1.179e-9
-0.351, -1.178e-9
-0.352, -1.179e-9
-0.353, -1.182e-9
-0.354, -1.183e-9
-0.355, -1.183e-9
-0.356, -1.184e-9
-0.357, -1.185e-9
-0.358, -1.187e-9
-0.359, -1.186e-9
-0.360, -1.188e-9
-0.361, -1.190e-9
-0.362, -1.191e-9
-0.363, -1.191e-9
-0.364, -1.192e-9
-0.365, -1.196e-9
-0.366, -1.197e-9
-0.367, -1.196e-9
-0.368, -1.198e-9
-0.369, -1.199e-9
-0.370, -1.198e-9
-0.371, -1.198e-9
-0.372, -1.199e-9
-0.373, -1.202e-9
-0.374, -1.203e-9
-0.375, -1.203e-9
-0.376, -1.204e-9
-0.377, -1.205e-9
-0.378, -1.209e-9
-0.379, -1.209e-9
-0.380, -1.209e-9
-0.381, -1.212e-9
-0.382, -1.215e-9
-0.383, -1.215e-9
-0.384, -1.217e-9
-0.385, -1.219e-9
-0.386, -1.221e-9
-0.387, -1.221e-9
-0.388, -1.223e-9
-0.389, -1.224e-9
-0.390, -1.225e-9
-0.391, -1.226e-9
-0.392, -1.226e-9
-0.393, -1.229e-9
-0.394, -1.230e-9
-0.395, -1.233e-9
-0.396, -1.233e-9
-0.397, -1.232e-9
-0.398, -1.243e-9
-0.399, -1.255e-9
-0.400, -1.256e-9
-0.401, -1.259e-9
-0.402, -1.261e-9
-0.403, -1.261e-9
-0.404, -1.261e-9
-0.405, -1.262e-9
-0.406, -1.263e-9
-0.407, -1.265e-9
-0.408, -1.266e-9
-0.409, -1.266e-9
-0.410, -1.266e-9
-0.411, -1.266e-9
-0.412, -1.268e-9
-0.413, -1.269e-9
-0.414, -1.271e-9
-0.415, -1.273e-9
-0.416, -1.275e-9
-0.417, -1.275e-9
-0.418, -1.277e-9
-0.419, -1.278e-9
-0.420, -1.279e-9
-0.421, -1.279e-9
-0.422, -1.280e-9
-0.423, -1.281e-9
-0.424, -1.282e-9
-0.425, -1.284e-9
-0.426, -1.285e-9
-0.427, -1.286e-9
-0.428, -1.286e-9
-0.429, -1.288e-9
-0.430, -1.292e-9
-0.431, -1.293e-9
-0.432, -1.294e-9
-0.433, -1.294e-9
-0.434, -1.297e-9
-0.435, -1.299e-9
-0.436, -1.300e-9
-0.437, -1.298e-9
-0.438, -1.300e-9
-0.439, -1.300e-9
-0.440, -1.299e-9
-0.441, -1.301e-9
-0.442, -1.305e-9
-0.443, -1.305e-9
-0.444, -1.305e-9
-0.445, -1.306e-9
-0.446, -1.308e-9
-0.447, -1.307e-9
-0.448, -1.309e-9
-0.449, -1.312e-9
-0.450, -1.313e-9
-0.451, -1.314e-9
-0.452, -1.316e-9
-0.453, -1.318e-9
-0.454, -1.318e-9
-0.455, -1.318e-9
-0.456, -1.320e-9
-0.457, -1.320e-9
-0.458, -1.323e-9
-0.459, -1.326e-9
-0.460, -1.326e-9
-0.461, -1.326e-9
-0.462, -1.329e-9
-0.463, -1.330e-9
-0.464, -1.332e-9
-0.465, -1.341e-9
-0.466, -1.344e-9
-0.467, -1.345e-9
-0.468, -1.344e-9
-0.469, -1.346e-9
-0.470, -1.351e-9
-0.471, -1.352e-9
-0.472, -1.353e-9
-0.473, -1.354e-9
-0.474, -1.353e-9
-0.475, -1.356e-9
-0.476, -1.361e-9
-0.477, -1.361e-9
-0.478, -1.364e-9
-0.479, -1.366e-9
-0.480, -1.370e-9
-0.481, -1.371e-9
-0.482, -1.371e-9
-0.483, -1.373e-9
-0.484, -1.372e-9
-0.485, -1.374e-9
-0.486, -1.375e-9
-0.487, -1.377e-9
-0.488, -1.382e-9
-0.489, -1.383e-9
-0.490, -1.385e-9
-0.491, -1.388e-9
-0.492, -1.390e-9
-0.493, -1.395e-9
-0.494, -1.396e-9
-0.495, -1.398e-9
-0.496, -1.402e-9
-0.497, -1.404e-9
-0.498, -1.407e-9
-0.499, -1.409e-9
