Nov. 21, 2024   11:39:58
Cyclic Voltammetry
File: +12 2319-1 fto cv_cells_light_bulk 50 mv s-1.bin
Data Source:  Experiment
Instrument Model:  CHI920C
Ref. Electrode: 
Header: 
Note: 

Init E (V) = -0.5
High E (V) = 0.5
Low E (V) = -0.5
Init P/N = P
Scan Rate (V/s) = 0.05
Segment = 2
Sample Interval (V) = 0.001
Quiet Time (sec) = 10
Sensitivity (A/V) = 1e-7

Results:

Channel 1:
Segment 1:
Ep = 0.114V
ip = 7.346e-11A
Ah = 1.032e-10C

Segment 2:

Potential/V, Current/A

-0.500, -2.147e-9
-0.499, -2.123e-9
-0.498, -2.100e-9
-0.497, -2.080e-9
-0.496, -2.062e-9
-0.495, -2.045e-9
-0.494, -2.029e-9
-0.493, -2.012e-9
-0.492, -1.996e-9
-0.491, -1.979e-9
-0.490, -1.965e-9
-0.489, -1.949e-9
-0.488, -1.935e-9
-0.487, -1.921e-9
-0.486, -1.907e-9
-0.485, -1.893e-9
-0.484, -1.878e-9
-0.483, -1.865e-9
-0.482, -1.850e-9
-0.481, -1.835e-9
-0.480, -1.821e-9
-0.479, -1.809e-9
-0.478, -1.797e-9
-0.477, -1.784e-9
-0.476, -1.772e-9
-0.475, -1.759e-9
-0.474, -1.744e-9
-0.473, -1.732e-9
-0.472, -1.716e-9
-0.471, -1.703e-9
-0.470, -1.691e-9
-0.469, -1.678e-9
-0.468, -1.667e-9
-0.467, -1.656e-9
-0.466, -1.644e-9
-0.465, -1.632e-9
-0.464, -1.620e-9
-0.463, -1.608e-9
-0.462, -1.597e-9
-0.461, -1.586e-9
-0.460, -1.575e-9
-0.459, -1.563e-9
-0.458, -1.552e-9
-0.457, -1.541e-9
-0.456, -1.530e-9
-0.455, -1.519e-9
-0.454, -1.507e-9
-0.453, -1.493e-9
-0.452, -1.479e-9
-0.451, -1.467e-9
-0.450, -1.455e-9
-0.449, -1.444e-9
-0.448, -1.433e-9
-0.447, -1.423e-9
-0.446, -1.413e-9
-0.445, -1.402e-9
-0.444, -1.391e-9
-0.443, -1.380e-9
-0.442, -1.371e-9
-0.441, -1.360e-9
-0.440, -1.350e-9
-0.439, -1.339e-9
-0.438, -1.330e-9
-0.437, -1.321e-9
-0.436, -1.312e-9
-0.435, -1.304e-9
-0.434, -1.294e-9
-0.433, -1.285e-9
-0.432, -1.275e-9
-0.431, -1.264e-9
-0.430, -1.254e-9
-0.429, -1.242e-9
-0.428, -1.231e-9
-0.427, -1.221e-9
-0.426, -1.211e-9
-0.425, -1.202e-9
-0.424, -1.192e-9
-0.423, -1.183e-9
-0.422, -1.174e-9
-0.421, -1.166e-9
-0.420, -1.156e-9
-0.419, -1.147e-9
-0.418, -1.139e-9
-0.417, -1.129e-9
-0.416, -1.120e-9
-0.415, -1.112e-9
-0.414, -1.103e-9
-0.413, -1.095e-9
-0.412, -1.087e-9
-0.411, -1.080e-9
-0.410, -1.070e-9
-0.409, -1.064e-9
-0.408, -1.056e-9
-0.407, -1.048e-9
-0.406, -1.040e-9
-0.405, -1.031e-9
-0.404, -1.022e-9
-0.403, -1.013e-9
-0.402, -1.004e-9
-0.401, -9.945e-10
-0.400, -9.858e-10
-0.399, -9.775e-10
-0.398, -9.686e-10
-0.397, -9.616e-10
-0.396, -9.540e-10
-0.395, -9.461e-10
-0.394, -9.392e-10
-0.393, -9.309e-10
-0.392, -9.236e-10
-0.391, -9.160e-10
-0.390, -9.084e-10
-0.389, -9.017e-10
-0.388, -8.947e-10
-0.387, -8.876e-10
-0.386, -8.804e-10
-0.385, -8.738e-10
-0.384, -8.672e-10
-0.383, -8.596e-10
-0.382, -8.528e-10
-0.381, -8.464e-10
-0.380, -8.402e-10
-0.379, -8.334e-10
-0.378, -8.274e-10
-0.377, -8.213e-10
-0.376, -8.170e-10
-0.375, -8.101e-10
-0.374, -8.045e-10
-0.373, -7.986e-10
-0.372, -7.919e-10
-0.371, -7.859e-10
-0.370, -7.791e-10
-0.369, -7.717e-10
-0.368, -7.653e-10
-0.367, -7.582e-10
-0.366, -7.509e-10
-0.365, -7.436e-10
-0.364, -7.370e-10
-0.363, -7.307e-10
-0.362, -7.249e-10
-0.361, -7.190e-10
-0.360, -7.125e-10
-0.359, -7.069e-10
-0.358, -7.005e-10
-0.357, -6.947e-10
-0.356, -6.892e-10
-0.355, -6.832e-10
-0.354, -6.771e-10
-0.353, -6.722e-10
-0.352, -6.666e-10
-0.351, -6.606e-10
-0.350, -6.545e-10
-0.349, -6.493e-10
-0.348, -6.434e-10
-0.347, -6.380e-10
-0.346, -6.328e-10
-0.345, -6.267e-10
-0.344, -6.209e-10
-0.343, -6.159e-10
-0.342, -6.107e-10
-0.341, -6.049e-10
-0.340, -5.999e-10
-0.339, -5.955e-10
-0.338, -5.902e-10
-0.337, -5.846e-10
-0.336, -5.811e-10
-0.335, -5.752e-10
-0.334, -5.714e-10
-0.333, -5.664e-10
-0.332, -5.612e-10
-0.331, -5.555e-10
-0.330, -5.505e-10
-0.329, -5.454e-10
-0.328, -5.395e-10
-0.327, -5.342e-10
-0.326, -5.289e-10
-0.325, -5.224e-10
-0.324, -5.170e-10
-0.323, -5.116e-10
-0.322, -5.058e-10
-0.321, -5.001e-10
-0.320, -4.951e-10
-0.319, -4.887e-10
-0.318, -4.839e-10
-0.317, -4.786e-10
-0.316, -4.733e-10
-0.315, -4.689e-10
-0.314, -4.643e-10
-0.313, -4.593e-10
-0.312, -4.557e-10
-0.311, -4.504e-10
-0.310, -4.455e-10
-0.309, -4.413e-10
-0.308, -4.371e-10
-0.307, -4.309e-10
-0.306, -4.260e-10
-0.305, -4.221e-10
-0.304, -4.178e-10
-0.303, -4.132e-10
-0.302, -4.086e-10
-0.301, -4.043e-10
-0.300, -3.997e-10
-0.299, -3.952e-10
-0.298, -3.909e-10
-0.297, -3.868e-10
-0.296, -3.823e-10
-0.295, -3.776e-10
-0.294, -3.730e-10
-0.293, -3.691e-10
-0.292, -3.654e-10
-0.291, -3.617e-10
-0.290, -3.574e-10
-0.289, -3.535e-10
-0.288, -3.486e-10
-0.287, -3.454e-10
-0.286, -3.414e-10
-0.285, -3.377e-10
-0.284, -3.345e-10
-0.283, -3.313e-10
-0.282, -3.276e-10
-0.281, -3.243e-10
-0.280, -3.195e-10
-0.279, -3.157e-10
-0.278, -3.118e-10
-0.277, -3.078e-10
-0.276, -3.035e-10
-0.275, -3.003e-10
-0.274, -2.955e-10
-0.273, -2.910e-10
-0.272, -2.876e-10
-0.271, -2.822e-10
-0.270, -2.775e-10
-0.269, -2.734e-10
-0.268, -2.685e-10
-0.267, -2.640e-10
-0.266, -2.600e-10
-0.265, -2.555e-10
-0.264, -2.511e-10
-0.263, -2.464e-10
-0.262, -2.425e-10
-0.261, -2.376e-10
-0.260, -2.339e-10
-0.259, -2.299e-10
-0.258, -2.260e-10
-0.257, -2.225e-10
-0.256, -2.183e-10
-0.255, -2.154e-10
-0.254, -2.116e-10
-0.253, -2.072e-10
-0.252, -2.043e-10
-0.251, -1.999e-10
-0.250, -1.963e-10
-0.249, -1.928e-10
-0.248, -1.884e-10
-0.247, -1.849e-10
-0.246, -1.819e-10
-0.245, -1.783e-10
-0.244, -1.755e-10
-0.243, -1.715e-10
-0.242, -1.675e-10
-0.241, -1.636e-10
-0.240, -1.606e-10
-0.239, -1.558e-10
-0.238, -1.521e-10
-0.237, -1.490e-10
-0.236, -1.456e-10
-0.235, -1.415e-10
-0.234, -1.382e-10
-0.233, -1.352e-10
-0.232, -1.314e-10
-0.231, -1.277e-10
-0.230, -1.251e-10
-0.229, -1.215e-10
-0.228, -1.173e-10
-0.227, -1.150e-10
-0.226, -1.115e-10
-0.225, -1.089e-10
-0.224, -1.054e-10
-0.223, -1.017e-10
-0.222, -9.842e-11
-0.221, -9.501e-11
-0.220, -9.189e-11
-0.219, -8.808e-11
-0.218, -8.565e-11
-0.217, -8.292e-11
-0.216, -8.038e-11
-0.215, -7.678e-11
-0.214, -7.229e-11
-0.213, -6.908e-11
-0.212, -6.615e-11
-0.211, -6.254e-11
-0.210, -5.864e-11
-0.209, -5.455e-11
-0.208, -5.172e-11
-0.207, -4.792e-11
-0.206, -4.471e-11
-0.205, -4.071e-11
-0.204, -3.749e-11
-0.203, -3.340e-11
-0.202, -2.999e-11
-0.201, -2.589e-11
-0.200, -2.248e-11
-0.199, -1.780e-11
-0.198, -1.585e-11
-0.197, -1.059e-11
-0.196, -6.687e-12
-0.195, -3.665e-12
-0.194, 1.365e-13
-0.193, 3.451e-12
-0.192, 5.985e-12
-0.191, 1.047e-11
-0.190, 1.300e-11
-0.189, 1.632e-11
-0.188, 2.032e-11
-0.187, 2.343e-11
-0.186, 2.626e-11
-0.185, 3.016e-11
-0.184, 3.348e-11
-0.183, 3.533e-11
-0.182, 3.893e-11
-0.181, 4.147e-11
-0.180, 4.478e-11
-0.179, 4.683e-11
-0.178, 4.966e-11
-0.177, 5.365e-11
-0.176, 5.658e-11
-0.175, 6.028e-11
-0.174, 6.282e-11
-0.173, 6.740e-11
-0.172, 6.974e-11
-0.171, 7.305e-11
-0.170, 7.520e-11
-0.169, 7.861e-11
-0.168, 8.153e-11
-0.167, 8.553e-11
-0.166, 8.836e-11
-0.165, 9.099e-11
-0.164, 9.391e-11
-0.163, 9.703e-11
-0.162, 1.003e-10
-0.161, 1.038e-10
-0.160, 1.063e-10
-0.159, 1.095e-10
-0.158, 1.123e-10
-0.157, 1.149e-10
-0.156, 1.185e-10
-0.155, 1.209e-10
-0.154, 1.239e-10
-0.153, 1.259e-10
-0.152, 1.296e-10
-0.151, 1.323e-10
-0.150, 1.349e-10
-0.149, 1.379e-10
-0.148, 1.398e-10
-0.147, 1.430e-10
-0.146, 1.464e-10
-0.145, 1.487e-10
-0.144, 1.508e-10
-0.143, 1.531e-10
-0.142, 1.557e-10
-0.141, 1.581e-10
-0.140, 1.603e-10
-0.139, 1.625e-10
-0.138, 1.652e-10
-0.137, 1.684e-10
-0.136, 1.708e-10
-0.135, 1.736e-10
-0.134, 1.765e-10
-0.133, 1.799e-10
-0.132, 1.818e-10
-0.131, 1.853e-10
-0.130, 1.882e-10
-0.129, 1.919e-10
-0.128, 1.942e-10
-0.127, 1.973e-10
-0.126, 2.002e-10
-0.125, 2.038e-10
-0.124, 2.063e-10
-0.123, 2.085e-10
-0.122, 2.125e-10
-0.121, 2.157e-10
-0.120, 2.192e-10
-0.119, 2.229e-10
-0.118, 2.247e-10
-0.117, 2.286e-10
-0.116, 2.311e-10
-0.115, 2.335e-10
-0.114, 2.367e-10
-0.113, 2.403e-10
-0.112, 2.428e-10
-0.111, 2.460e-10
-0.110, 2.489e-10
-0.109, 2.513e-10
-0.108, 2.542e-10
-0.107, 2.563e-10
-0.106, 2.594e-10
-0.105, 2.626e-10
-0.104, 2.653e-10
-0.103, 2.675e-10
-0.102, 2.711e-10
-0.101, 2.736e-10
-0.100, 2.766e-10
-0.099, 2.788e-10
-0.098, 2.816e-10
-0.097, 2.831e-10
-0.096, 2.863e-10
-0.095, 2.894e-10
-0.094, 2.913e-10
-0.093, 2.940e-10
-0.092, 2.968e-10
-0.091, 2.985e-10
-0.090, 3.015e-10
-0.089, 3.045e-10
-0.088, 3.066e-10
-0.087, 3.096e-10
-0.086, 3.124e-10
-0.085, 3.147e-10
-0.084, 3.175e-10
-0.083, 3.203e-10
-0.082, 3.227e-10
-0.081, 3.248e-10
-0.080, 3.273e-10
-0.079, 3.299e-10
-0.078, 3.317e-10
-0.077, 3.347e-10
-0.076, 3.375e-10
-0.075, 3.405e-10
-0.074, 3.426e-10
-0.073, 3.449e-10
-0.072, 3.475e-10
-0.071, 3.503e-10
-0.070, 3.530e-10
-0.069, 3.553e-10
-0.068, 3.574e-10
-0.067, 3.596e-10
-0.066, 3.623e-10
-0.065, 3.646e-10
-0.064, 3.667e-10
-0.063, 3.693e-10
-0.062, 3.719e-10
-0.061, 3.742e-10
-0.060, 3.770e-10
-0.059, 3.789e-10
-0.058, 3.811e-10
-0.057, 3.829e-10
-0.056, 3.858e-10
-0.055, 3.877e-10
-0.054, 3.898e-10
-0.053, 3.917e-10
-0.052, 3.945e-10
-0.051, 3.959e-10
-0.050, 3.983e-10
-0.049, 4.011e-10
-0.048, 4.029e-10
-0.047, 4.051e-10
-0.046, 4.070e-10
-0.045, 4.099e-10
-0.044, 4.128e-10
-0.043, 4.141e-10
-0.042, 4.160e-10
-0.041, 4.189e-10
-0.040, 4.215e-10
-0.039, 4.234e-10
-0.038, 4.263e-10
-0.037, 4.290e-10
-0.036, 4.314e-10
-0.035, 4.335e-10
-0.034, 4.372e-10
-0.033, 4.392e-10
-0.032, 4.419e-10
-0.031, 4.447e-10
-0.030, 4.475e-10
-0.029, 4.505e-10
-0.028, 4.534e-10
-0.027, 4.566e-10
-0.026, 4.593e-10
-0.025, 4.624e-10
-0.024, 4.652e-10
-0.023, 4.674e-10
-0.022, 4.700e-10
-0.021, 4.731e-10
-0.020, 4.752e-10
-0.019, 4.784e-10
-0.018, 4.808e-10
-0.017, 4.843e-10
-0.016, 4.867e-10
-0.015, 4.888e-10
-0.014, 4.920e-10
-0.013, 4.945e-10
-0.012, 4.968e-10
-0.011, 4.997e-10
-0.010, 5.019e-10
-0.009, 5.046e-10
-0.008, 5.069e-10
-0.007, 5.099e-10
-0.006, 5.116e-10
-0.005, 5.142e-10
-0.004, 5.165e-10
-0.003, 5.193e-10
-0.002, 5.214e-10
-0.001, 5.236e-10
0.000, 5.247e-10
0.001, 5.275e-10
0.002, 5.306e-10
0.003, 5.325e-10
0.004, 5.357e-10
0.005, 5.374e-10
0.006, 5.400e-10
0.007, 5.418e-10
0.008, 5.445e-10
0.009, 5.472e-10
0.010, 5.493e-10
0.011, 5.514e-10
0.012, 5.546e-10
0.013, 5.568e-10
0.014, 5.593e-10
0.015, 5.628e-10
0.016, 5.648e-10
0.017, 5.667e-10
0.018, 5.699e-10
0.019, 5.728e-10
0.020, 5.752e-10
0.021, 5.778e-10
0.022, 5.798e-10
0.023, 5.830e-10
0.024, 5.854e-10
0.025, 5.879e-10
0.026, 5.899e-10
0.027, 5.936e-10
0.028, 5.960e-10
0.029, 5.981e-10
0.030, 6.010e-10
0.031, 6.038e-10
0.032, 6.072e-10
0.033, 6.093e-10
0.034, 6.112e-10
0.035, 6.149e-10
0.036, 6.181e-10
0.037, 6.198e-10
0.038, 6.226e-10
0.039, 6.249e-10
0.040, 6.280e-10
0.041, 6.306e-10
0.042, 6.326e-10
0.043, 6.359e-10
0.044, 6.385e-10
0.045, 6.418e-10
0.046, 6.446e-10
0.047, 6.468e-10
0.048, 6.502e-10
0.049, 6.526e-10
0.050, 6.563e-10
0.051, 6.592e-10
0.052, 6.622e-10
0.053, 6.662e-10
0.054, 6.688e-10
0.055, 6.712e-10
0.056, 6.751e-10
0.057, 6.782e-10
0.058, 6.822e-10
0.059, 6.852e-10
0.060, 6.891e-10
0.061, 6.925e-10
0.062, 6.962e-10
0.063, 6.997e-10
0.064, 7.031e-10
0.065, 7.075e-10
0.066, 7.111e-10
0.067, 7.143e-10
0.068, 7.189e-10
0.069, 7.230e-10
0.070, 7.251e-10
0.071, 7.288e-10
0.072, 7.327e-10
0.073, 7.364e-10
0.074, 7.400e-10
0.075, 7.432e-10
0.076, 7.465e-10
0.077, 7.497e-10
0.078, 7.539e-10
0.079, 7.567e-10
0.080, 7.600e-10
0.081, 7.627e-10
0.082, 7.668e-10
0.083, 7.702e-10
0.084, 7.738e-10
0.085, 7.768e-10
0.086, 7.794e-10
0.087, 7.826e-10
0.088, 7.854e-10
0.089, 7.892e-10
0.090, 7.931e-10
0.091, 7.954e-10
0.092, 7.983e-10
0.093, 8.011e-10
0.094, 8.045e-10
0.095, 8.068e-10
0.096, 8.096e-10
0.097, 8.124e-10
0.098, 8.156e-10
0.099, 8.185e-10
0.100, 8.201e-10
0.101, 8.233e-10
0.102, 8.259e-10
0.103, 8.291e-10
0.104, 8.312e-10
0.105, 8.342e-10
0.106, 8.369e-10
0.107, 8.396e-10
0.108, 8.416e-10
0.109, 8.435e-10
0.110, 8.459e-10
0.111, 8.466e-10
0.112, 8.468e-10
0.113, 8.474e-10
0.114, 8.476e-10
0.115, 8.464e-10
0.116, 8.442e-10
0.117, 8.419e-10
0.118, 8.373e-10
0.119, 8.328e-10
0.120, 8.296e-10
0.121, 8.273e-10
0.122, 8.253e-10
0.123, 8.240e-10
0.124, 8.215e-10
0.125, 8.208e-10
0.126, 8.197e-10
0.127, 8.192e-10
0.128, 8.174e-10
0.129, 8.160e-10
0.130, 8.154e-10
0.131, 8.153e-10
0.132, 8.149e-10
0.133, 8.152e-10
0.134, 8.146e-10
0.135, 8.139e-10
0.136, 8.138e-10
0.137, 8.141e-10
0.138, 8.140e-10
0.139, 8.143e-10
0.140, 8.150e-10
0.141, 8.144e-10
0.142, 8.150e-10
0.143, 8.154e-10
0.144, 8.163e-10
0.145, 8.164e-10
0.146, 8.167e-10
0.147, 8.172e-10
0.148, 8.182e-10
0.149, 8.191e-10
0.150, 8.192e-10
0.151, 8.204e-10
0.152, 8.218e-10
0.153, 8.223e-10
0.154, 8.226e-10
0.155, 8.233e-10
0.156, 8.248e-10
0.157, 8.250e-10
0.158, 8.267e-10
0.159, 8.284e-10
0.160, 8.287e-10
0.161, 8.298e-10
0.162, 8.310e-10
0.163, 8.318e-10
0.164, 8.333e-10
0.165, 8.341e-10
0.166, 8.356e-10
0.167, 8.377e-10
0.168, 8.390e-10
0.169, 8.400e-10
0.170, 8.418e-10
0.171, 8.430e-10
0.172, 8.438e-10
0.173, 8.455e-10
0.174, 8.473e-10
0.175, 8.494e-10
0.176, 8.506e-10
0.177, 8.521e-10
0.178, 8.546e-10
0.179, 8.548e-10
0.180, 8.549e-10
0.181, 8.572e-10
0.182, 8.590e-10
0.183, 8.600e-10
0.184, 8.602e-10
0.185, 8.610e-10
0.186, 8.630e-10
0.187, 8.655e-10
0.188, 8.681e-10
0.189, 8.700e-10
0.190, 8.710e-10
0.191, 8.721e-10
0.192, 8.737e-10
0.193, 8.754e-10
0.194, 8.762e-10
0.195, 8.781e-10
0.196, 8.791e-10
0.197, 8.810e-10
0.198, 8.830e-10
0.199, 8.834e-10
0.200, 8.849e-10
0.201, 8.863e-10
0.202, 8.872e-10
0.203, 8.893e-10
0.204, 8.907e-10
0.205, 8.904e-10
0.206, 8.925e-10
0.207, 8.950e-10
0.208, 8.967e-10
0.209, 8.968e-10
0.210, 8.982e-10
0.211, 9.003e-10
0.212, 9.004e-10
0.213, 9.020e-10
0.214, 9.035e-10
0.215, 9.054e-10
0.216, 9.047e-10
0.217, 9.064e-10
0.218, 9.077e-10
0.219, 9.100e-10
0.220, 9.106e-10
0.221, 9.110e-10
0.222, 9.123e-10
0.223, 9.135e-10
0.224, 9.142e-10
0.225, 9.153e-10
0.226, 9.167e-10
0.227, 9.187e-10
0.228, 9.191e-10
0.229, 9.207e-10
0.230, 9.215e-10
0.231, 9.231e-10
0.232, 9.239e-10
0.233, 9.250e-10
0.234, 9.256e-10
0.235, 9.270e-10
0.236, 9.292e-10
0.237, 9.294e-10
0.238, 9.296e-10
0.239, 9.313e-10
0.240, 9.333e-10
0.241, 9.338e-10
0.242, 9.346e-10
0.243, 9.361e-10
0.244, 9.367e-10
0.245, 9.374e-10
0.246, 9.381e-10
0.247, 9.388e-10
0.248, 9.401e-10
0.249, 9.414e-10
0.250, 9.414e-10
0.251, 9.430e-10
0.252, 9.443e-10
0.253, 9.442e-10
0.254, 9.452e-10
0.255, 9.458e-10
0.256, 9.473e-10
0.257, 9.487e-10
0.258, 9.497e-10
0.259, 9.500e-10
0.260, 9.511e-10
0.261, 9.521e-10
0.262, 9.519e-10
0.263, 9.542e-10
0.264, 9.542e-10
0.265, 9.559e-10
0.266, 9.563e-10
0.267, 9.581e-10
0.268, 9.587e-10
0.269, 9.600e-10
0.270, 9.599e-10
0.271, 9.608e-10
0.272, 9.622e-10
0.273, 9.634e-10
0.274, 9.636e-10
0.275, 9.653e-10
0.276, 9.654e-10
0.277, 9.657e-10
0.278, 9.678e-10
0.279, 9.676e-10
0.280, 9.692e-10
0.281, 9.701e-10
0.282, 9.711e-10
0.283, 9.725e-10
0.284, 9.727e-10
0.285, 9.737e-10
0.286, 9.744e-10
0.287, 9.754e-10
0.288, 9.765e-10
0.289, 9.774e-10
0.290, 9.786e-10
0.291, 9.790e-10
0.292, 9.800e-10
0.293, 9.816e-10
0.294, 9.823e-10
0.295, 9.836e-10
0.296, 9.846e-10
0.297, 9.857e-10
0.298, 9.861e-10
0.299, 9.875e-10
0.300, 9.878e-10
0.301, 9.894e-10
0.302, 9.896e-10
0.303, 9.915e-10
0.304, 9.925e-10
0.305, 9.931e-10
0.306, 9.940e-10
0.307, 9.961e-10
0.308, 9.977e-10
0.309, 9.984e-10
0.310, 9.989e-10
0.311, 9.994e-10
0.312, 1.000e-9
0.313, 1.001e-9
0.314, 1.003e-9
0.315, 1.004e-9
0.316, 1.004e-9
0.317, 1.005e-9
0.318, 1.006e-9
0.319, 1.008e-9
0.320, 1.008e-9
0.321, 1.008e-9
0.322, 1.010e-9
0.323, 1.011e-9
0.324, 1.012e-9
0.325, 1.013e-9
0.326, 1.014e-9
0.327, 1.015e-9
0.328, 1.016e-9
0.329, 1.017e-9
0.330, 1.018e-9
0.331, 1.019e-9
0.332, 1.021e-9
0.333, 1.021e-9
0.334, 1.022e-9
0.335, 1.023e-9
0.336, 1.024e-9
0.337, 1.026e-9
0.338, 1.026e-9
0.339, 1.028e-9
0.340, 1.029e-9
0.341, 1.030e-9
0.342, 1.031e-9
0.343, 1.033e-9
0.344, 1.033e-9
0.345, 1.034e-9
0.346, 1.035e-9
0.347, 1.036e-9
0.348, 1.037e-9
0.349, 1.038e-9
0.350, 1.040e-9
0.351, 1.041e-9
0.352, 1.042e-9
0.353, 1.043e-9
0.354, 1.044e-9
0.355, 1.044e-9
0.356, 1.046e-9
0.357, 1.047e-9
0.358, 1.048e-9
0.359, 1.049e-9
0.360, 1.051e-9
0.361, 1.051e-9
0.362, 1.052e-9
0.363, 1.053e-9
0.364, 1.055e-9
0.365, 1.056e-9
0.366, 1.058e-9
0.367, 1.058e-9
0.368, 1.059e-9
0.369, 1.060e-9
0.370, 1.061e-9
0.371, 1.063e-9
0.372, 1.064e-9
0.373, 1.065e-9
0.374, 1.066e-9
0.375, 1.067e-9
0.376, 1.070e-9
0.377, 1.071e-9
0.378, 1.071e-9
0.379, 1.072e-9
0.380, 1.073e-9
0.381, 1.074e-9
0.382, 1.075e-9
0.383, 1.075e-9
0.384, 1.076e-9
0.385, 1.077e-9
0.386, 1.080e-9
0.387, 1.081e-9
0.388, 1.082e-9
0.389, 1.083e-9
0.390, 1.085e-9
0.391, 1.086e-9
0.392, 1.086e-9
0.393, 1.088e-9
0.394, 1.089e-9
0.395, 1.090e-9
0.396, 1.091e-9
0.397, 1.092e-9
0.398, 1.093e-9
0.399, 1.094e-9
0.400, 1.095e-9
0.401, 1.096e-9
0.402, 1.097e-9
0.403, 1.098e-9
0.404, 1.099e-9
0.405, 1.101e-9
0.406, 1.101e-9
0.407, 1.102e-9
0.408, 1.103e-9
0.409, 1.104e-9
0.410, 1.104e-9
0.411, 1.105e-9
0.412, 1.106e-9
0.413, 1.107e-9
0.414, 1.108e-9
0.415, 1.110e-9
0.416, 1.110e-9
0.417, 1.111e-9
0.418, 1.112e-9
0.419, 1.113e-9
0.420, 1.115e-9
0.421, 1.116e-9
0.422, 1.117e-9
0.423, 1.118e-9
0.424, 1.119e-9
0.425, 1.121e-9
0.426, 1.121e-9
0.427, 1.123e-9
0.428, 1.123e-9
0.429, 1.125e-9
0.430, 1.125e-9
0.431, 1.126e-9
0.432, 1.127e-9
0.433, 1.128e-9
0.434, 1.129e-9
0.435, 1.130e-9
0.436, 1.132e-9
0.437, 1.133e-9
0.438, 1.135e-9
0.439, 1.135e-9
0.440, 1.137e-9
0.441, 1.137e-9
0.442, 1.139e-9
0.443, 1.140e-9
0.444, 1.141e-9
0.445, 1.142e-9
0.446, 1.142e-9
0.447, 1.144e-9
0.448, 1.145e-9
0.449, 1.146e-9
0.450, 1.147e-9
0.451, 1.148e-9
0.452, 1.150e-9
0.453, 1.151e-9
0.454, 1.153e-9
0.455, 1.153e-9
0.456, 1.155e-9
0.457, 1.157e-9
0.458, 1.159e-9
0.459, 1.159e-9
0.460, 1.160e-9
0.461, 1.162e-9
0.462, 1.164e-9
0.463, 1.164e-9
0.464, 1.166e-9
0.465, 1.167e-9
0.466, 1.169e-9
0.467, 1.170e-9
0.468, 1.172e-9
0.469, 1.174e-9
0.470, 1.174e-9
0.471, 1.176e-9
0.472, 1.178e-9
0.473, 1.179e-9
0.474, 1.181e-9
0.475, 1.182e-9
0.476, 1.183e-9
0.477, 1.184e-9
0.478, 1.186e-9
0.479, 1.188e-9
0.480, 1.190e-9
0.481, 1.191e-9
0.482, 1.192e-9
0.483, 1.194e-9
0.484, 1.195e-9
0.485, 1.196e-9
0.486, 1.198e-9
0.487, 1.200e-9
0.488, 1.201e-9
0.489, 1.203e-9
0.490, 1.203e-9
0.491, 1.205e-9
0.492, 1.207e-9
0.493, 1.209e-9
0.494, 1.210e-9
0.495, 1.211e-9
0.496, 1.213e-9
0.497, 1.214e-9
0.498, 1.215e-9
0.499, 1.216e-9
0.500, 1.209e-9
0.499, 1.176e-9
0.498, 1.154e-9
0.497, 1.140e-9
0.496, 1.129e-9
0.495, 1.120e-9
0.494, 1.109e-9
0.493, 1.100e-9
0.492, 1.091e-9
0.491, 1.083e-9
0.490, 1.074e-9
0.489, 1.066e-9
0.488, 1.058e-9
0.487, 1.050e-9
0.486, 1.043e-9
0.485, 1.035e-9
0.484, 1.027e-9
0.483, 1.021e-9
0.482, 1.014e-9
0.481, 1.008e-9
0.480, 1.001e-9
0.479, 9.943e-10
0.478, 9.885e-10
0.477, 9.822e-10
0.476, 9.767e-10
0.475, 9.700e-10
0.474, 9.645e-10
0.473, 9.589e-10
0.472, 9.519e-10
0.471, 9.461e-10
0.470, 9.396e-10
0.469, 9.330e-10
0.468, 9.272e-10
0.467, 9.215e-10
0.466, 9.159e-10
0.465, 9.101e-10
0.464, 9.050e-10
0.463, 8.992e-10
0.462, 8.937e-10
0.461, 8.898e-10
0.460, 8.833e-10
0.459, 8.784e-10
0.458, 8.743e-10
0.457, 8.686e-10
0.456, 8.636e-10
0.455, 8.589e-10
0.454, 8.548e-10
0.453, 8.484e-10
0.452, 8.444e-10
0.451, 8.393e-10
0.450, 8.346e-10
0.449, 8.296e-10
0.448, 8.254e-10
0.447, 8.207e-10
0.446, 8.162e-10
0.445, 8.110e-10
0.444, 8.068e-10
0.443, 8.019e-10
0.442, 7.977e-10
0.441, 7.941e-10
0.440, 7.885e-10
0.439, 7.849e-10
0.438, 7.804e-10
0.437, 7.756e-10
0.436, 7.720e-10
0.435, 7.682e-10
0.434, 7.642e-10
0.433, 7.602e-10
0.432, 7.562e-10
0.431, 7.528e-10
0.430, 7.493e-10
0.429, 7.451e-10
0.428, 7.420e-10
0.427, 7.378e-10
0.426, 7.338e-10
0.425, 7.292e-10
0.424, 7.251e-10
0.423, 7.202e-10
0.422, 7.164e-10
0.421, 7.112e-10
0.420, 7.072e-10
0.419, 7.027e-10
0.418, 6.986e-10
0.417, 6.951e-10
0.416, 6.910e-10
0.415, 6.867e-10
0.414, 6.827e-10
0.413, 6.784e-10
0.412, 6.745e-10
0.411, 6.703e-10
0.410, 6.680e-10
0.409, 6.655e-10
0.408, 6.615e-10
0.407, 6.585e-10
0.406, 6.549e-10
0.405, 6.500e-10
0.404, 6.469e-10
0.403, 6.437e-10
0.402, 6.397e-10
0.401, 6.365e-10
0.400, 6.330e-10
0.399, 6.296e-10
0.398, 6.270e-10
0.397, 6.236e-10
0.396, 6.198e-10
0.395, 6.158e-10
0.394, 6.119e-10
0.393, 6.074e-10
0.392, 6.041e-10
0.391, 6.008e-10
0.390, 5.977e-10
0.389, 5.952e-10
0.388, 5.925e-10
0.387, 5.878e-10
0.386, 5.847e-10
0.385, 5.815e-10
0.384, 5.787e-10
0.383, 5.746e-10
0.382, 5.719e-10
0.381, 5.682e-10
0.380, 5.645e-10
0.379, 5.609e-10
0.378, 5.579e-10
0.377, 5.549e-10
0.376, 5.513e-10
0.375, 5.474e-10
0.374, 5.443e-10
0.373, 5.411e-10
0.372, 5.378e-10
0.371, 5.348e-10
0.370, 5.313e-10
0.369, 5.279e-10
0.368, 5.247e-10
0.367, 5.218e-10
0.366, 5.186e-10
0.365, 5.146e-10
0.364, 5.115e-10
0.363, 5.082e-10
0.362, 5.047e-10
0.361, 5.011e-10
0.360, 4.971e-10
0.359, 4.941e-10
0.358, 4.915e-10
0.357, 4.870e-10
0.356, 4.835e-10
0.355, 4.817e-10
0.354, 4.768e-10
0.353, 4.731e-10
0.352, 4.683e-10
0.351, 4.646e-10
0.350, 4.614e-10
0.349, 4.571e-10
0.348, 4.537e-10
0.347, 4.483e-10
0.346, 4.447e-10
0.345, 4.416e-10
0.344, 4.374e-10
0.343, 4.351e-10
0.342, 4.328e-10
0.341, 4.287e-10
0.340, 4.254e-10
0.339, 4.224e-10
0.338, 4.192e-10
0.337, 4.161e-10
0.336, 4.137e-10
0.335, 4.107e-10
0.334, 4.079e-10
0.333, 4.046e-10
0.332, 4.024e-10
0.331, 4.001e-10
0.330, 3.965e-10
0.329, 3.945e-10
0.328, 3.915e-10
0.327, 3.886e-10
0.326, 3.851e-10
0.325, 3.828e-10
0.324, 3.802e-10
0.323, 3.778e-10
0.322, 3.750e-10
0.321, 3.716e-10
0.320, 3.704e-10
0.319, 3.670e-10
0.318, 3.642e-10
0.317, 3.615e-10
0.316, 3.591e-10
0.315, 3.564e-10
0.314, 3.536e-10
0.313, 3.513e-10
0.312, 3.470e-10
0.311, 3.446e-10
0.310, 3.425e-10
0.309, 3.395e-10
0.308, 3.364e-10
0.307, 3.322e-10
0.306, 3.294e-10
0.305, 3.269e-10
0.304, 3.243e-10
0.303, 3.215e-10
0.302, 3.196e-10
0.301, 3.160e-10
0.300, 3.135e-10
0.299, 3.114e-10
0.298, 3.091e-10
0.297, 3.067e-10
0.296, 3.041e-10
0.295, 3.020e-10
0.294, 2.989e-10
0.293, 2.958e-10
0.292, 2.932e-10
0.291, 2.904e-10
0.290, 2.883e-10
0.289, 2.861e-10
0.288, 2.826e-10
0.287, 2.805e-10
0.286, 2.776e-10
0.285, 2.754e-10
0.284, 2.726e-10
0.283, 2.700e-10
0.282, 2.674e-10
0.281, 2.652e-10
0.280, 2.628e-10
0.279, 2.598e-10
0.278, 2.582e-10
0.277, 2.548e-10
0.276, 2.523e-10
0.275, 2.494e-10
0.274, 2.465e-10
0.273, 2.433e-10
0.272, 2.413e-10
0.271, 2.383e-10
0.270, 2.347e-10
0.269, 2.323e-10
0.268, 2.299e-10
0.267, 2.272e-10
0.266, 2.244e-10
0.265, 2.209e-10
0.264, 2.183e-10
0.263, 2.156e-10
0.262, 2.125e-10
0.261, 2.088e-10
0.260, 2.068e-10
0.259, 2.040e-10
0.258, 2.012e-10
0.257, 1.984e-10
0.256, 1.960e-10
0.255, 1.933e-10
0.254, 1.900e-10
0.253, 1.872e-10
0.252, 1.853e-10
0.251, 1.819e-10
0.250, 1.793e-10
0.249, 1.766e-10
0.248, 1.740e-10
0.247, 1.722e-10
0.246, 1.708e-10
0.245, 1.689e-10
0.244, 1.662e-10
0.243, 1.638e-10
0.242, 1.614e-10
0.241, 1.595e-10
0.240, 1.569e-10
0.239, 1.558e-10
0.238, 1.532e-10
0.237, 1.508e-10
0.236, 1.491e-10
0.235, 1.466e-10
0.234, 1.446e-10
0.233, 1.426e-10
0.232, 1.399e-10
0.231, 1.378e-10
0.230, 1.358e-10
0.229, 1.331e-10
0.228, 1.306e-10
0.227, 1.291e-10
0.226, 1.262e-10
0.225, 1.248e-10
0.224, 1.221e-10
0.223, 1.198e-10
0.222, 1.169e-10
0.221, 1.143e-10
0.220, 1.126e-10
0.219, 1.109e-10
0.218, 1.073e-10
0.217, 1.053e-10
0.216, 1.035e-10
0.215, 1.008e-10
0.214, 9.889e-11
0.213, 9.635e-11
0.212, 9.304e-11
0.211, 9.148e-11
0.210, 8.923e-11
0.209, 8.621e-11
0.208, 8.504e-11
0.207, 8.270e-11
0.206, 7.958e-11
0.205, 7.793e-11
0.204, 7.578e-11
0.203, 7.403e-11
0.202, 7.101e-11
0.201, 6.906e-11
0.200, 6.681e-11
0.199, 6.399e-11
0.198, 6.262e-11
0.197, 6.028e-11
0.196, 5.697e-11
0.195, 5.502e-11
0.194, 5.258e-11
0.193, 5.005e-11
0.192, 4.751e-11
0.191, 4.517e-11
0.190, 4.400e-11
0.189, 4.205e-11
0.188, 3.903e-11
0.187, 3.767e-11
0.186, 3.533e-11
0.185, 3.270e-11
0.184, 3.045e-11
0.183, 2.792e-11
0.182, 2.655e-11
0.181, 2.363e-11
0.180, 2.158e-11
0.179, 1.983e-11
0.178, 1.837e-11
0.177, 1.564e-11
0.176, 1.232e-11
0.175, 1.037e-11
0.174, 8.227e-12
0.173, 6.570e-12
0.172, 3.938e-12
0.171, 1.501e-12
0.170, -1.521e-12
0.169, -3.080e-12
0.168, -5.517e-12
0.167, -8.734e-12
0.166, -1.107e-11
0.165, -1.351e-11
0.164, -1.605e-11
0.163, -1.741e-11
0.162, -2.024e-11
0.161, -2.355e-11
0.160, -2.550e-11
0.159, -2.823e-11
0.158, -3.106e-11
0.157, -3.388e-11
0.156, -3.554e-11
0.155, -3.817e-11
0.154, -4.139e-11
0.153, -4.324e-11
0.152, -4.568e-11
0.151, -4.802e-11
0.150, -5.046e-11
0.149, -5.260e-11
0.148, -5.553e-11
0.147, -5.738e-11
0.146, -5.894e-11
0.145, -6.206e-11
0.144, -6.401e-11
0.143, -6.674e-11
0.142, -6.888e-11
0.141, -7.161e-11
0.140, -7.288e-11
0.139, -7.522e-11
0.138, -7.756e-11
0.137, -7.921e-11
0.136, -8.185e-11
0.135, -8.360e-11
0.134, -8.555e-11
0.133, -8.750e-11
0.132, -8.974e-11
0.131, -9.198e-11
0.130, -9.345e-11
0.129, -9.569e-11
0.128, -9.744e-11
0.127, -9.939e-11
0.126, -1.016e-10
0.125, -1.036e-10
0.124, -1.051e-10
0.123, -1.067e-10
0.122, -1.099e-10
0.121, -1.119e-10
0.120, -1.136e-10
0.119, -1.165e-10
0.118, -1.185e-10
0.117, -1.207e-10
0.116, -1.226e-10
0.115, -1.247e-10
0.114, -1.262e-10
0.113, -1.281e-10
0.112, -1.305e-10
0.111, -1.333e-10
0.110, -1.346e-10
0.109, -1.369e-10
0.108, -1.395e-10
0.107, -1.418e-10
0.106, -1.429e-10
0.105, -1.454e-10
0.104, -1.474e-10
0.103, -1.492e-10
0.102, -1.526e-10
0.101, -1.547e-10
0.100, -1.564e-10
0.099, -1.587e-10
0.098, -1.605e-10
0.097, -1.630e-10
0.096, -1.640e-10
0.095, -1.677e-10
0.094, -1.684e-10
0.093, -1.713e-10
0.092, -1.742e-10
0.091, -1.765e-10
0.090, -1.781e-10
0.089, -1.795e-10
0.088, -1.822e-10
0.087, -1.844e-10
0.086, -1.862e-10
0.085, -1.886e-10
0.084, -1.907e-10
0.083, -1.931e-10
0.082, -1.946e-10
0.081, -1.969e-10
0.080, -1.985e-10
0.079, -2.004e-10
0.078, -2.025e-10
0.077, -2.048e-10
0.076, -2.069e-10
0.075, -2.085e-10
0.074, -2.109e-10
0.073, -2.131e-10
0.072, -2.151e-10
0.071, -2.179e-10
0.070, -2.199e-10
0.069, -2.218e-10
0.068, -2.246e-10
0.067, -2.270e-10
0.066, -2.288e-10
0.065, -2.309e-10
0.064, -2.335e-10
0.063, -2.358e-10
0.062, -2.380e-10
0.061, -2.403e-10
0.060, -2.434e-10
0.059, -2.450e-10
0.058, -2.478e-10
0.057, -2.493e-10
0.056, -2.520e-10
0.055, -2.545e-10
0.054, -2.572e-10
0.053, -2.588e-10
0.052, -2.615e-10
0.051, -2.639e-10
0.050, -2.668e-10
0.049, -2.688e-10
0.048, -2.707e-10
0.047, -2.734e-10
0.046, -2.762e-10
0.045, -2.798e-10
0.044, -2.823e-10
0.043, -2.846e-10
0.042, -2.868e-10
0.041, -2.899e-10
0.040, -2.918e-10
0.039, -2.942e-10
0.038, -2.967e-10
0.037, -2.993e-10
0.036, -3.010e-10
0.035, -3.036e-10
0.034, -3.068e-10
0.033, -3.090e-10
0.032, -3.108e-10
0.031, -3.127e-10
0.030, -3.152e-10
0.029, -3.166e-10
0.028, -3.185e-10
0.027, -3.209e-10
0.026, -3.230e-10
0.025, -3.251e-10
0.024, -3.265e-10
0.023, -3.293e-10
0.022, -3.310e-10
0.021, -3.326e-10
0.020, -3.346e-10
0.019, -3.365e-10
0.018, -3.388e-10
0.017, -3.413e-10
0.016, -3.435e-10
0.015, -3.450e-10
0.014, -3.473e-10
0.013, -3.492e-10
0.012, -3.518e-10
0.011, -3.533e-10
0.010, -3.556e-10
0.009, -3.581e-10
0.008, -3.608e-10
0.007, -3.625e-10
0.006, -3.645e-10
0.005, -3.669e-10
0.004, -3.686e-10
0.003, -3.708e-10
0.002, -3.733e-10
0.001, -3.758e-10
-0.000, -3.767e-10
-0.001, -3.791e-10
-0.002, -3.820e-10
-0.003, -3.849e-10
-0.004, -3.883e-10
-0.005, -3.904e-10
-0.006, -3.934e-10
-0.007, -3.957e-10
-0.008, -3.991e-10
-0.009, -4.017e-10
-0.010, -4.038e-10
-0.011, -4.067e-10
-0.012, -4.090e-10
-0.013, -4.109e-10
-0.014, -4.139e-10
-0.015, -4.178e-10
-0.016, -4.199e-10
-0.017, -4.225e-10
-0.018, -4.244e-10
-0.019, -4.261e-10
-0.020, -4.288e-10
-0.021, -4.309e-10
-0.022, -4.330e-10
-0.023, -4.356e-10
-0.024, -4.386e-10
-0.025, -4.401e-10
-0.026, -4.406e-10
-0.027, -4.442e-10
-0.028, -4.455e-10
-0.029, -4.459e-10
-0.030, -4.481e-10
-0.031, -4.504e-10
-0.032, -4.533e-10
-0.033, -4.559e-10
-0.034, -4.591e-10
-0.035, -4.609e-10
-0.036, -4.636e-10
-0.037, -4.663e-10
-0.038, -4.682e-10
-0.039, -4.699e-10
-0.040, -4.731e-10
-0.041, -4.752e-10
-0.042, -4.773e-10
-0.043, -4.808e-10
-0.044, -4.833e-10
-0.045, -4.871e-10
-0.046, -4.891e-10
-0.047, -4.930e-10
-0.048, -4.955e-10
-0.049, -4.976e-10
-0.050, -5.005e-10
-0.051, -5.031e-10
-0.052, -5.070e-10
-0.053, -5.088e-10
-0.054, -5.123e-10
-0.055, -5.145e-10
-0.056, -5.178e-10
-0.057, -5.209e-10
-0.058, -5.247e-10
-0.059, -5.304e-10
-0.060, -5.313e-10
-0.061, -5.324e-10
-0.062, -5.353e-10
-0.063, -5.381e-10
-0.064, -5.406e-10
-0.065, -5.438e-10
-0.066, -5.467e-10
-0.067, -5.495e-10
-0.068, -5.530e-10
-0.069, -5.548e-10
-0.070, -5.573e-10
-0.071, -5.599e-10
-0.072, -5.625e-10
-0.073, -5.651e-10
-0.074, -5.674e-10
-0.075, -5.704e-10
-0.076, -5.726e-10
-0.077, -5.749e-10
-0.078, -5.776e-10
-0.079, -5.801e-10
-0.080, -5.820e-10
-0.081, -5.841e-10
-0.082, -5.876e-10
-0.083, -5.898e-10
-0.084, -5.914e-10
-0.085, -5.941e-10
-0.086, -5.963e-10
-0.087, -5.990e-10
-0.088, -6.023e-10
-0.089, -6.041e-10
-0.090, -6.065e-10
-0.091, -6.089e-10
-0.092, -6.123e-10
-0.093, -6.144e-10
-0.094, -6.173e-10
-0.095, -6.200e-10
-0.096, -6.227e-10
-0.097, -6.256e-10
-0.098, -6.279e-10
-0.099, -6.313e-10
-0.100, -6.332e-10
-0.101, -6.365e-10
-0.102, -6.400e-10
-0.103, -6.438e-10
-0.104, -6.451e-10
-0.105, -6.484e-10
-0.106, -6.509e-10
-0.107, -6.544e-10
-0.108, -6.574e-10
-0.109, -6.600e-10
-0.110, -6.621e-10
-0.111, -6.654e-10
-0.112, -6.679e-10
-0.113, -6.702e-10
-0.114, -6.734e-10
-0.115, -6.759e-10
-0.116, -6.798e-10
-0.117, -6.826e-10
-0.118, -6.853e-10
-0.119, -6.880e-10
-0.120, -6.910e-10
-0.121, -6.930e-10
-0.122, -6.959e-10
-0.123, -6.989e-10
-0.124, -7.010e-10
-0.125, -7.034e-10
-0.126, -7.062e-10
-0.127, -7.088e-10
-0.128, -7.115e-10
-0.129, -7.142e-10
-0.130, -7.174e-10
-0.131, -7.209e-10
-0.132, -7.228e-10
-0.133, -7.257e-10
-0.134, -7.297e-10
-0.135, -7.316e-10
-0.136, -7.354e-10
-0.137, -7.384e-10
-0.138, -7.413e-10
-0.139, -7.448e-10
-0.140, -7.476e-10
-0.141, -7.506e-10
-0.142, -7.531e-10
-0.143, -7.568e-10
-0.144, -7.597e-10
-0.145, -7.624e-10
-0.146, -7.658e-10
-0.147, -7.694e-10
-0.148, -7.730e-10
-0.149, -7.760e-10
-0.150, -7.786e-10
-0.151, -7.823e-10
-0.152, -7.848e-10
-0.153, -7.881e-10
-0.154, -7.906e-10
-0.155, -7.936e-10
-0.156, -7.955e-10
-0.157, -7.985e-10
-0.158, -8.017e-10
-0.159, -8.048e-10
-0.160, -8.070e-10
-0.161, -8.098e-10
-0.162, -8.125e-10
-0.163, -8.150e-10
-0.164, -8.177e-10
-0.165, -8.210e-10
-0.166, -8.227e-10
-0.167, -8.249e-10
-0.168, -8.289e-10
-0.169, -8.303e-10
-0.170, -8.327e-10
-0.171, -8.359e-10
-0.172, -8.384e-10
-0.173, -8.417e-10
-0.174, -8.443e-10
-0.175, -8.466e-10
-0.176, -8.489e-10
-0.177, -8.521e-10
-0.178, -8.556e-10
-0.179, -8.578e-10
-0.180, -8.608e-10
-0.181, -8.630e-10
-0.182, -8.669e-10
-0.183, -8.699e-10
-0.184, -8.727e-10
-0.185, -8.752e-10
-0.186, -8.783e-10
-0.187, -8.823e-10
-0.188, -8.841e-10
-0.189, -8.880e-10
-0.190, -8.911e-10
-0.191, -8.946e-10
-0.192, -8.974e-10
-0.193, -9.010e-10
-0.194, -9.037e-10
-0.195, -9.063e-10
-0.196, -9.097e-10
-0.197, -9.136e-10
-0.198, -9.158e-10
-0.199, -9.191e-10
-0.200, -9.210e-10
-0.201, -9.240e-10
-0.202, -9.272e-10
-0.203, -9.306e-10
-0.204, -9.339e-10
-0.205, -9.359e-10
-0.206, -9.380e-10
-0.207, -9.426e-10
-0.208, -9.464e-10
-0.209, -9.482e-10
-0.210, -9.510e-10
-0.211, -9.532e-10
-0.212, -9.564e-10
-0.213, -9.598e-10
-0.214, -9.634e-10
-0.215, -9.655e-10
-0.216, -9.684e-10
-0.217, -9.719e-10
-0.218, -9.761e-10
-0.219, -9.790e-10
-0.220, -9.834e-10
-0.221, -9.860e-10
-0.222, -9.901e-10
-0.223, -9.941e-10
-0.224, -9.970e-10
-0.225, -1.001e-9
-0.226, -1.004e-9
-0.227, -1.007e-9
-0.228, -1.011e-9
-0.229, -1.014e-9
-0.230, -1.018e-9
-0.231, -1.022e-9
-0.232, -1.025e-9
-0.233, -1.028e-9
-0.234, -1.032e-9
-0.235, -1.036e-9
-0.236, -1.038e-9
-0.237, -1.042e-9
-0.238, -1.045e-9
-0.239, -1.049e-9
-0.240, -1.051e-9
-0.241, -1.054e-9
-0.242, -1.059e-9
-0.243, -1.062e-9
-0.244, -1.064e-9
-0.245, -1.066e-9
-0.246, -1.070e-9
-0.247, -1.073e-9
-0.248, -1.075e-9
-0.249, -1.078e-9
-0.250, -1.081e-9
-0.251, -1.084e-9
-0.252, -1.087e-9
-0.253, -1.090e-9
-0.254, -1.093e-9
-0.255, -1.096e-9
-0.256, -1.099e-9
-0.257, -1.104e-9
-0.258, -1.106e-9
-0.259, -1.109e-9
-0.260, -1.112e-9
-0.261, -1.116e-9
-0.262, -1.120e-9
-0.263, -1.122e-9
-0.264, -1.125e-9
-0.265, -1.129e-9
-0.266, -1.132e-9
-0.267, -1.136e-9
-0.268, -1.138e-9
-0.269, -1.141e-9
-0.270, -1.146e-9
-0.271, -1.149e-9
-0.272, -1.152e-9
-0.273, -1.156e-9
-0.274, -1.160e-9
-0.275, -1.163e-9
-0.276, -1.166e-9
-0.277, -1.169e-9
-0.278, -1.172e-9
-0.279, -1.174e-9
-0.280, -1.178e-9
-0.281, -1.181e-9
-0.282, -1.184e-9
-0.283, -1.188e-9
-0.284, -1.191e-9
-0.285, -1.194e-9
-0.286, -1.198e-9
-0.287, -1.201e-9
-0.288, -1.204e-9
-0.289, -1.209e-9
-0.290, -1.212e-9
-0.291, -1.216e-9
-0.292, -1.218e-9
-0.293, -1.221e-9
-0.294, -1.226e-9
-0.295, -1.229e-9
-0.296, -1.233e-9
-0.297, -1.237e-9
-0.298, -1.242e-9
-0.299, -1.246e-9
-0.300, -1.250e-9
-0.301, -1.254e-9
-0.302, -1.257e-9
-0.303, -1.263e-9
-0.304, -1.267e-9
-0.305, -1.271e-9
-0.306, -1.275e-9
-0.307, -1.279e-9
-0.308, -1.284e-9
-0.309, -1.287e-9
-0.310, -1.289e-9
-0.311, -1.292e-9
-0.312, -1.297e-9
-0.313, -1.301e-9
-0.314, -1.303e-9
-0.315, -1.306e-9
-0.316, -1.310e-9
-0.317, -1.314e-9
-0.318, -1.318e-9
-0.319, -1.321e-9
-0.320, -1.324e-9
-0.321, -1.328e-9
-0.322, -1.331e-9
-0.323, -1.335e-9
-0.324, -1.337e-9
-0.325, -1.342e-9
-0.326, -1.346e-9
-0.327, -1.348e-9
-0.328, -1.352e-9
-0.329, -1.357e-9
-0.330, -1.360e-9
-0.331, -1.364e-9
-0.332, -1.369e-9
-0.333, -1.373e-9
-0.334, -1.378e-9
-0.335, -1.380e-9
-0.336, -1.385e-9
-0.337, -1.389e-9
-0.338, -1.393e-9
-0.339, -1.397e-9
-0.340, -1.400e-9
-0.341, -1.405e-9
-0.342, -1.407e-9
-0.343, -1.411e-9
-0.344, -1.416e-9
-0.345, -1.419e-9
-0.346, -1.423e-9
-0.347, -1.428e-9
-0.348, -1.433e-9
-0.349, -1.436e-9
-0.350, -1.440e-9
-0.351, -1.445e-9
-0.352, -1.449e-9
-0.353, -1.454e-9
-0.354, -1.458e-9
-0.355, -1.463e-9
-0.356, -1.467e-9
-0.357, -1.472e-9
-0.358, -1.477e-9
-0.359, -1.483e-9
-0.360, -1.489e-9
-0.361, -1.494e-9
-0.362, -1.498e-9
-0.363, -1.502e-9
-0.364, -1.508e-9
-0.365, -1.513e-9
-0.366, -1.518e-9
-0.367, -1.523e-9
-0.368, -1.528e-9
-0.369, -1.533e-9
-0.370, -1.538e-9
-0.371, -1.542e-9
-0.372, -1.547e-9
-0.373, -1.551e-9
-0.374, -1.555e-9
-0.375, -1.559e-9
-0.376, -1.564e-9
-0.377, -1.568e-9
-0.378, -1.573e-9
-0.379, -1.578e-9
-0.380, -1.583e-9
-0.381, -1.587e-9
-0.382, -1.593e-9
-0.383, -1.598e-9
-0.384, -1.604e-9
-0.385, -1.608e-9
-0.386, -1.614e-9
-0.387, -1.618e-9
-0.388, -1.624e-9
-0.389, -1.630e-9
-0.390, -1.634e-9
-0.391, -1.640e-9
-0.392, -1.645e-9
-0.393, -1.650e-9
-0.394, -1.654e-9
-0.395, -1.660e-9
-0.396, -1.666e-9
-0.397, -1.671e-9
-0.398, -1.676e-9
-0.399, -1.681e-9
-0.400, -1.687e-9
-0.401, -1.693e-9
-0.402, -1.698e-9
-0.403, -1.704e-9
-0.404, -1.710e-9
-0.405, -1.716e-9
-0.406, -1.723e-9
-0.407, -1.729e-9
-0.408, -1.736e-9
-0.409, -1.742e-9
-0.410, -1.749e-9
-0.411, -1.756e-9
-0.412, -1.763e-9
-0.413, -1.768e-9
-0.414, -1.775e-9
-0.415, -1.780e-9
-0.416, -1.785e-9
-0.417, -1.791e-9
-0.418, -1.797e-9
-0.419, -1.802e-9
-0.420, -1.810e-9
-0.421, -1.816e-9
-0.422, -1.822e-9
-0.423, -1.829e-9
-0.424, -1.837e-9
-0.425, -1.843e-9
-0.426, -1.850e-9
-0.427, -1.856e-9
-0.428, -1.864e-9
-0.429, -1.872e-9
-0.430, -1.879e-9
-0.431, -1.886e-9
-0.432, -1.892e-9
-0.433, -1.900e-9
-0.434, -1.907e-9
-0.435, -1.914e-9
-0.436, -1.921e-9
-0.437, -1.928e-9
-0.438, -1.935e-9
-0.439, -1.943e-9
-0.440, -1.950e-9
-0.441, -1.957e-9
-0.442, -1.964e-9
-0.443, -1.973e-9
-0.444, -1.981e-9
-0.445, -1.989e-9
-0.446, -1.998e-9
-0.447, -2.005e-9
-0.448, -2.012e-9
-0.449, -2.021e-9
-0.450, -2.029e-9
-0.451, -2.036e-9
-0.452, -2.044e-9
-0.453, -2.051e-9
-0.454, -2.059e-9
-0.455, -2.067e-9
-0.456, -2.075e-9
-0.457, -2.083e-9
-0.458, -2.092e-9
-0.459, -2.101e-9
-0.460, -2.109e-9
-0.461, -2.118e-9
-0.462, -2.127e-9
-0.463, -2.135e-9
-0.464, -2.143e-9
-0.465, -2.151e-9
-0.466, -2.160e-9
-0.467, -2.168e-9
-0.468, -2.176e-9
-0.469, -2.183e-9
-0.470, -2.192e-9
-0.471, -2.202e-9
-0.472, -2.211e-9
-0.473, -2.220e-9
-0.474, -2.230e-9
-0.475, -2.240e-9
-0.476, -2.249e-9
-0.477, -2.258e-9
-0.478, -2.266e-9
-0.479, -2.275e-9
-0.480, -2.282e-9
-0.481, -2.290e-9
-0.482, -2.300e-9
-0.483, -2.309e-9
-0.484, -2.318e-9
-0.485, -2.327e-9
-0.486, -2.336e-9
-0.487, -2.345e-9
-0.488, -2.356e-9
-0.489, -2.366e-9
-0.490, -2.375e-9
-0.491, -2.384e-9
-0.492, -2.393e-9
-0.493, -2.402e-9
-0.494, -2.411e-9
-0.495, -2.421e-9
-0.496, -2.429e-9
-0.497, -2.439e-9
-0.498, -2.449e-9
-0.499, -2.458e-9
