Nov. 20, 2024   13:25:53
Cyclic Voltammetry
File: +12 2319-1 fto cv_cells_light_bulk 50 mv s-1 (2).bin
Data Source:  Experiment
Instrument Model:  CHI920C
Ref. Electrode: 
Header: 
Note: 

Init E (V) = -0.5
High E (V) = 0.5
Low E (V) = -0.5
Init P/N = P
Scan Rate (V/s) = 0.05
Segment = 2
Sample Interval (V) = 0.001
Quiet Time (sec) = 10
Sensitivity (A/V) = 1e-7

Results:

Channel 1:
Segment 1:
Ep = 0.090V
ip = 7.959e-9A
Ah = 1.491e-9C

Segment 2:
Ep = -0.062V
ip = -5.085e-9A
Ah = -9.741e-10C

Potential/V, Current/A

-0.500, -3.623e-10
-0.499, -3.476e-10
-0.498, -3.531e-10
-0.497, -3.509e-10
-0.496, -3.309e-10
-0.495, -3.083e-10
-0.494, -2.960e-10
-0.493, -2.830e-10
-0.492, -2.752e-10
-0.491, -2.737e-10
-0.490, -2.634e-10
-0.489, -2.615e-10
-0.488, -2.601e-10
-0.487, -2.521e-10
-0.486, -2.478e-10
-0.485, -2.476e-10
-0.484, -2.445e-10
-0.483, -2.409e-10
-0.482, -2.357e-10
-0.481, -2.345e-10
-0.480, -2.350e-10
-0.479, -2.279e-10
-0.478, -2.217e-10
-0.477, -2.148e-10
-0.476, -2.140e-10
-0.475, -2.082e-10
-0.474, -2.018e-10
-0.473, -2.024e-10
-0.472, -2.029e-10
-0.471, -2.074e-10
-0.470, -2.044e-10
-0.469, -1.971e-10
-0.468, -1.954e-10
-0.467, -1.891e-10
-0.466, -1.855e-10
-0.465, -1.824e-10
-0.464, -1.813e-10
-0.463, -1.756e-10
-0.462, -1.732e-10
-0.461, -1.727e-10
-0.460, -1.717e-10
-0.459, -1.710e-10
-0.458, -1.760e-10
-0.457, -1.746e-10
-0.456, -1.732e-10
-0.455, -1.727e-10
-0.454, -1.722e-10
-0.453, -1.727e-10
-0.452, -1.689e-10
-0.451, -1.602e-10
-0.450, -1.526e-10
-0.449, -1.483e-10
-0.448, -1.496e-10
-0.447, -1.540e-10
-0.446, -1.518e-10
-0.445, -1.530e-10
-0.444, -1.523e-10
-0.443, -1.538e-10
-0.442, -1.512e-10
-0.441, -1.453e-10
-0.440, -1.426e-10
-0.439, -1.405e-10
-0.438, -1.426e-10
-0.437, -1.424e-10
-0.436, -1.387e-10
-0.435, -1.325e-10
-0.434, -1.289e-10
-0.433, -1.236e-10
-0.432, -1.265e-10
-0.431, -1.240e-10
-0.430, -1.246e-10
-0.429, -1.222e-10
-0.428, -1.184e-10
-0.427, -1.158e-10
-0.426, -1.177e-10
-0.425, -1.138e-10
-0.424, -1.096e-10
-0.423, -1.096e-10
-0.422, -1.099e-10
-0.421, -1.084e-10
-0.420, -1.049e-10
-0.419, -1.034e-10
-0.418, -9.968e-11
-0.417, -9.900e-11
-0.416, -9.725e-11
-0.415, -9.900e-11
-0.414, -9.471e-11
-0.413, -8.906e-11
-0.412, -9.023e-11
-0.411, -8.711e-11
-0.410, -8.389e-11
-0.409, -8.428e-11
-0.408, -8.253e-11
-0.407, -8.233e-11
-0.406, -8.331e-11
-0.405, -8.311e-11
-0.404, -7.980e-11
-0.403, -7.609e-11
-0.402, -7.395e-11
-0.401, -7.083e-11
-0.400, -6.986e-11
-0.399, -6.947e-11
-0.398, -6.683e-11
-0.397, -6.498e-11
-0.396, -6.235e-11
-0.395, -5.923e-11
-0.394, -5.933e-11
-0.393, -5.962e-11
-0.392, -5.952e-11
-0.391, -6.147e-11
-0.390, -5.757e-11
-0.389, -6.196e-11
-0.388, -6.362e-11
-0.387, -5.601e-11
-0.386, -5.026e-11
-0.385, -4.782e-11
-0.384, -4.685e-11
-0.383, -4.617e-11
-0.382, -4.568e-11
-0.381, -3.964e-11
-0.380, -3.993e-11
-0.379, -3.886e-11
-0.378, -3.710e-11
-0.377, -3.193e-11
-0.376, -2.930e-11
-0.375, -2.862e-11
-0.374, -2.599e-11
-0.373, -2.589e-11
-0.372, -2.521e-11
-0.371, -2.570e-11
-0.370, -2.579e-11
-0.369, -2.414e-11
-0.368, -2.121e-11
-0.367, -2.365e-11
-0.366, -2.170e-11
-0.365, -2.024e-11
-0.364, -2.024e-11
-0.363, -1.780e-11
-0.362, -1.488e-11
-0.361, -1.458e-11
-0.360, -1.439e-11
-0.359, -1.185e-11
-0.358, -1.029e-11
-0.357, -6.687e-12
-0.356, -6.492e-12
-0.355, -7.857e-12
-0.354, -6.492e-12
-0.353, -5.225e-12
-0.352, -2.496e-12
-0.351, -4.543e-12
-0.350, 1.696e-12
-0.349, 5.693e-12
-0.348, 5.790e-12
-0.347, 5.401e-12
-0.346, 8.617e-12
-0.345, 1.154e-11
-0.344, 1.135e-11
-0.343, 1.281e-11
-0.342, 1.700e-11
-0.341, 1.817e-11
-0.340, 1.934e-11
-0.339, 1.798e-11
-0.338, 1.564e-11
-0.337, 1.690e-11
-0.336, 1.759e-11
-0.335, 1.915e-11
-0.334, 2.178e-11
-0.333, 2.421e-11
-0.332, 2.392e-11
-0.331, 2.568e-11
-0.330, 2.616e-11
-0.329, 2.548e-11
-0.328, 2.509e-11
-0.327, 2.880e-11
-0.326, 3.162e-11
-0.325, 3.338e-11
-0.324, 3.133e-11
-0.323, 3.387e-11
-0.322, 3.620e-11
-0.321, 4.010e-11
-0.320, 3.962e-11
-0.319, 4.205e-11
-0.318, 4.469e-11
-0.317, 4.771e-11
-0.316, 4.566e-11
-0.315, 4.303e-11
-0.314, 4.508e-11
-0.313, 4.732e-11
-0.312, 5.092e-11
-0.311, 5.014e-11
-0.310, 5.073e-11
-0.309, 5.375e-11
-0.308, 5.297e-11
-0.307, 5.512e-11
-0.306, 5.716e-11
-0.305, 5.677e-11
-0.304, 5.785e-11
-0.303, 6.048e-11
-0.302, 6.087e-11
-0.301, 6.223e-11
-0.300, 6.330e-11
-0.299, 6.379e-11
-0.298, 6.613e-11
-0.297, 7.052e-11
-0.296, 7.042e-11
-0.295, 7.120e-11
-0.294, 7.208e-11
-0.293, 7.383e-11
-0.292, 7.500e-11
-0.291, 7.529e-11
-0.290, 7.637e-11
-0.289, 7.783e-11
-0.288, 7.958e-11
-0.287, 8.173e-11
-0.286, 8.241e-11
-0.285, 8.231e-11
-0.284, 8.358e-11
-0.283, 8.495e-11
-0.282, 8.495e-11
-0.281, 8.738e-11
-0.280, 8.914e-11
-0.279, 9.138e-11
-0.278, 9.343e-11
-0.277, 9.479e-11
-0.276, 9.703e-11
-0.275, 9.947e-11
-0.274, 1.008e-10
-0.273, 1.007e-10
-0.272, 1.021e-10
-0.271, 1.034e-10
-0.270, 1.041e-10
-0.269, 1.076e-10
-0.268, 1.087e-10
-0.267, 1.106e-10
-0.266, 1.120e-10
-0.265, 1.138e-10
-0.264, 1.148e-10
-0.263, 1.164e-10
-0.262, 1.179e-10
-0.261, 1.186e-10
-0.260, 1.200e-10
-0.259, 1.211e-10
-0.258, 1.234e-10
-0.257, 1.249e-10
-0.256, 1.267e-10
-0.255, 1.271e-10
-0.254, 1.282e-10
-0.253, 1.298e-10
-0.252, 1.314e-10
-0.251, 1.335e-10
-0.250, 1.336e-10
-0.249, 1.358e-10
-0.248, 1.361e-10
-0.247, 1.369e-10
-0.246, 1.383e-10
-0.245, 1.407e-10
-0.244, 1.415e-10
-0.243, 1.428e-10
-0.242, 1.453e-10
-0.241, 1.485e-10
-0.240, 1.501e-10
-0.239, 1.508e-10
-0.238, 1.515e-10
-0.237, 1.527e-10
-0.236, 1.556e-10
-0.235, 1.578e-10
-0.234, 1.584e-10
-0.233, 1.590e-10
-0.232, 1.606e-10
-0.231, 1.620e-10
-0.230, 1.628e-10
-0.229, 1.650e-10
-0.228, 1.674e-10
-0.227, 1.699e-10
-0.226, 1.710e-10
-0.225, 1.733e-10
-0.224, 1.754e-10
-0.223, 1.761e-10
-0.222, 1.776e-10
-0.221, 1.779e-10
-0.220, 1.801e-10
-0.219, 1.799e-10
-0.218, 1.822e-10
-0.217, 1.826e-10
-0.216, 1.840e-10
-0.215, 1.859e-10
-0.214, 1.885e-10
-0.213, 1.914e-10
-0.212, 1.916e-10
-0.211, 1.951e-10
-0.210, 1.987e-10
-0.209, 2.009e-10
-0.208, 2.006e-10
-0.207, 2.047e-10
-0.206, 2.070e-10
-0.205, 2.088e-10
-0.204, 2.097e-10
-0.203, 2.101e-10
-0.202, 2.144e-10
-0.201, 2.174e-10
-0.200, 2.191e-10
-0.199, 2.222e-10
-0.198, 2.241e-10
-0.197, 2.278e-10
-0.196, 2.317e-10
-0.195, 2.336e-10
-0.194, 2.326e-10
-0.193, 2.336e-10
-0.192, 2.356e-10
-0.191, 2.366e-10
-0.190, 2.403e-10
-0.189, 2.444e-10
-0.188, 2.441e-10
-0.187, 2.466e-10
-0.186, 2.477e-10
-0.185, 2.487e-10
-0.184, 2.503e-10
-0.183, 2.535e-10
-0.182, 2.559e-10
-0.181, 2.553e-10
-0.180, 2.569e-10
-0.179, 2.596e-10
-0.178, 2.612e-10
-0.177, 2.638e-10
-0.176, 2.670e-10
-0.175, 2.660e-10
-0.174, 2.705e-10
-0.173, 2.738e-10
-0.172, 2.738e-10
-0.171, 2.738e-10
-0.170, 2.749e-10
-0.169, 2.788e-10
-0.168, 2.807e-10
-0.167, 2.822e-10
-0.166, 2.841e-10
-0.165, 2.888e-10
-0.164, 2.933e-10
-0.163, 2.963e-10
-0.162, 2.960e-10
-0.161, 3.003e-10
-0.160, 3.022e-10
-0.159, 3.018e-10
-0.158, 3.054e-10
-0.157, 3.090e-10
-0.156, 3.127e-10
-0.155, 3.144e-10
-0.154, 3.173e-10
-0.153, 3.191e-10
-0.152, 3.213e-10
-0.151, 3.231e-10
-0.150, 3.247e-10
-0.149, 3.242e-10
-0.148, 3.276e-10
-0.147, 3.280e-10
-0.146, 3.311e-10
-0.145, 3.340e-10
-0.144, 3.377e-10
-0.143, 3.445e-10
-0.142, 3.480e-10
-0.141, 3.472e-10
-0.140, 3.525e-10
-0.139, 3.623e-10
-0.138, 3.595e-10
-0.137, 3.572e-10
-0.136, 3.623e-10
-0.135, 3.674e-10
-0.134, 3.688e-10
-0.133, 3.698e-10
-0.132, 3.716e-10
-0.131, 3.734e-10
-0.130, 3.698e-10
-0.129, 3.711e-10
-0.128, 3.712e-10
-0.127, 3.751e-10
-0.126, 3.831e-10
-0.125, 3.870e-10
-0.124, 3.884e-10
-0.123, 3.850e-10
-0.122, 3.900e-10
-0.121, 3.900e-10
-0.120, 3.908e-10
-0.119, 3.917e-10
-0.118, 3.909e-10
-0.117, 3.968e-10
-0.116, 4.025e-10
-0.115, 4.039e-10
-0.114, 4.072e-10
-0.113, 4.126e-10
-0.112, 4.130e-10
-0.111, 4.154e-10
-0.110, 4.203e-10
-0.109, 4.217e-10
-0.108, 4.212e-10
-0.107, 4.220e-10
-0.106, 4.248e-10
-0.105, 4.337e-10
-0.104, 4.365e-10
-0.103, 4.332e-10
-0.102, 4.335e-10
-0.101, 4.312e-10
-0.100, 4.405e-10
-0.099, 4.457e-10
-0.098, 4.483e-10
-0.097, 4.488e-10
-0.096, 4.564e-10
-0.095, 4.619e-10
-0.094, 4.662e-10
-0.093, 4.709e-10
-0.092, 4.681e-10
-0.091, 4.734e-10
-0.090, 4.797e-10
-0.089, 4.824e-10
-0.088, 4.916e-10
-0.087, 4.902e-10
-0.086, 4.907e-10
-0.085, 4.982e-10
-0.084, 4.994e-10
-0.083, 5.045e-10
-0.082, 5.047e-10
-0.081, 5.006e-10
-0.080, 5.012e-10
-0.079, 5.031e-10
-0.078, 5.081e-10
-0.077, 5.128e-10
-0.076, 5.163e-10
-0.075, 5.148e-10
-0.074, 5.158e-10
-0.073, 5.278e-10
-0.072, 5.274e-10
-0.071, 5.301e-10
-0.070, 5.350e-10
-0.069, 5.349e-10
-0.068, 5.415e-10
-0.067, 5.412e-10
-0.066, 5.425e-10
-0.065, 5.493e-10
-0.064, 5.567e-10
-0.063, 5.604e-10
-0.062, 5.664e-10
-0.061, 5.665e-10
-0.060, 5.600e-10
-0.059, 5.589e-10
-0.058, 5.592e-10
-0.057, 5.633e-10
-0.056, 5.673e-10
-0.055, 5.725e-10
-0.054, 5.810e-10
-0.053, 5.871e-10
-0.052, 5.811e-10
-0.051, 5.765e-10
-0.050, 6.068e-10
-0.049, 7.254e-10
-0.048, 8.367e-10
-0.047, 9.576e-10
-0.046, 9.268e-10
-0.045, 8.903e-10
-0.044, 8.695e-10
-0.043, 8.594e-10
-0.042, 8.508e-10
-0.041, 8.454e-10
-0.040, 8.399e-10
-0.039, 8.351e-10
-0.038, 8.423e-10
-0.037, 8.453e-10
-0.036, 8.412e-10
-0.035, 8.396e-10
-0.034, 8.356e-10
-0.033, 8.357e-10
-0.032, 8.383e-10
-0.031, 8.386e-10
-0.030, 8.385e-10
-0.029, 8.396e-10
-0.028, 8.398e-10
-0.027, 8.390e-10
-0.026, 8.441e-10
-0.025, 8.481e-10
-0.024, 8.512e-10
-0.023, 8.537e-10
-0.022, 8.589e-10
-0.021, 8.608e-10
-0.020, 8.628e-10
-0.019, 8.625e-10
-0.018, 8.631e-10
-0.017, 8.674e-10
-0.016, 8.744e-10
-0.015, 8.732e-10
-0.014, 8.772e-10
-0.013, 8.801e-10
-0.012, 8.812e-10
-0.011, 8.835e-10
-0.010, 8.833e-10
-0.009, 8.846e-10
-0.008, 8.884e-10
-0.007, 8.947e-10
-0.006, 8.994e-10
-0.005, 9.016e-10
-0.004, 9.024e-10
-0.003, 9.070e-10
-0.002, 9.121e-10
-0.001, 9.129e-10
0.000, 9.112e-10
0.001, 9.130e-10
0.002, 9.214e-10
0.003, 9.275e-10
0.004, 9.314e-10
0.005, 9.342e-10
0.006, 9.386e-10
0.007, 9.433e-10
0.008, 9.441e-10
0.009, 9.515e-10
0.010, 9.528e-10
0.011, 9.536e-10
0.012, 9.565e-10
0.013, 9.582e-10
0.014, 9.664e-10
0.015, 9.748e-10
0.016, 9.748e-10
0.017, 9.763e-10
0.018, 9.805e-10
0.019, 9.828e-10
0.020, 9.882e-10
0.021, 9.928e-10
0.022, 9.944e-10
0.023, 9.982e-10
0.024, 1.002e-9
0.025, 1.006e-9
0.026, 1.014e-9
0.027, 1.013e-9
0.028, 1.020e-9
0.029, 1.027e-9
0.030, 1.027e-9
0.031, 1.029e-9
0.032, 1.029e-9
0.033, 1.034e-9
0.034, 1.040e-9
0.035, 1.047e-9
0.036, 1.056e-9
0.037, 1.060e-9
0.038, 1.064e-9
0.039, 1.070e-9
0.040, 1.074e-9
0.041, 1.078e-9
0.042, 1.080e-9
0.043, 1.084e-9
0.044, 1.088e-9
0.045, 1.096e-9
0.046, 1.102e-9
0.047, 1.111e-9
0.048, 1.118e-9
0.049, 1.119e-9
0.050, 1.126e-9
0.051, 1.134e-9
0.052, 1.141e-9
0.053, 1.150e-9
0.054, 1.157e-9
0.055, 1.175e-9
0.056, 1.180e-9
0.057, 1.182e-9
0.058, 1.194e-9
0.059, 1.202e-9
0.060, 1.217e-9
0.061, 1.217e-9
0.062, 1.228e-9
0.063, 1.233e-9
0.064, 1.240e-9
0.065, 1.248e-9
0.066, 1.260e-9
0.067, 1.273e-9
0.068, 1.284e-9
0.069, 1.297e-9
0.070, 1.310e-9
0.071, 1.329e-9
0.072, 1.347e-9
0.073, 1.383e-9
0.074, 1.424e-9
0.075, 1.464e-9
0.076, 1.517e-9
0.077, 1.599e-9
0.078, 1.727e-9
0.079, 1.904e-9
0.080, 2.138e-9
0.081, 2.471e-9
0.082, 2.942e-9
0.083, 3.568e-9
0.084, 4.408e-9
0.085, 5.398e-9
0.086, 6.646e-9
0.087, 7.849e-9
0.088, 8.499e-9
0.089, 8.627e-9
0.090, 8.816e-9
0.091, 8.456e-9
0.092, 8.033e-9
0.093, 6.406e-9
0.094, 5.377e-9
0.095, 5.036e-9
0.096, 3.868e-9
0.097, 3.106e-9
0.098, 2.899e-9
0.099, 2.703e-9
0.100, 2.529e-9
0.101, 2.408e-9
0.102, 2.268e-9
0.103, 2.087e-9
0.104, 1.947e-9
0.105, 1.804e-9
0.106, 1.690e-9
0.107, 1.608e-9
0.108, 1.537e-9
0.109, 1.482e-9
0.110, 1.439e-9
0.111, 1.415e-9
0.112, 1.392e-9
0.113, 1.378e-9
0.114, 1.372e-9
0.115, 1.368e-9
0.116, 1.365e-9
0.117, 1.372e-9
0.118, 1.375e-9
0.119, 1.374e-9
0.120, 1.371e-9
0.121, 1.371e-9
0.122, 1.365e-9
0.123, 1.366e-9
0.124, 1.369e-9
0.125, 1.367e-9
0.126, 1.370e-9
0.127, 1.371e-9
0.128, 1.370e-9
0.129, 1.375e-9
0.130, 1.385e-9
0.131, 1.395e-9
0.132, 1.386e-9
0.133, 1.383e-9
0.134, 1.389e-9
0.135, 1.399e-9
0.136, 1.401e-9
0.137, 1.401e-9
0.138, 1.401e-9
0.139, 1.401e-9
0.140, 1.402e-9
0.141, 1.409e-9
0.142, 1.412e-9
0.143, 1.411e-9
0.144, 1.411e-9
0.145, 1.418e-9
0.146, 1.423e-9
0.147, 1.421e-9
0.148, 1.430e-9
0.149, 1.437e-9
0.150, 1.428e-9
0.151, 1.427e-9
0.152, 1.439e-9
0.153, 1.449e-9
0.154, 1.458e-9
0.155, 1.457e-9
0.156, 1.452e-9
0.157, 1.453e-9
0.158, 1.468e-9
0.159, 1.467e-9
0.160, 1.474e-9
0.161, 1.479e-9
0.162, 1.476e-9
0.163, 1.469e-9
0.164, 1.478e-9
0.165, 1.482e-9
0.166, 1.479e-9
0.167, 1.479e-9
0.168, 1.486e-9
0.169, 1.493e-9
0.170, 1.491e-9
0.171, 1.488e-9
0.172, 1.496e-9
0.173, 1.519e-9
0.174, 1.533e-9
0.175, 1.537e-9
0.176, 1.549e-9
0.177, 1.554e-9
0.178, 1.562e-9
0.179, 1.583e-9
0.180, 1.592e-9
0.181, 1.597e-9
0.182, 1.604e-9
0.183, 1.615e-9
0.184, 1.655e-9
0.185, 1.686e-9
0.186, 1.704e-9
0.187, 1.711e-9
0.188, 1.717e-9
0.189, 1.726e-9
0.190, 1.729e-9
0.191, 1.733e-9
0.192, 1.738e-9
0.193, 1.739e-9
0.194, 1.738e-9
0.195, 1.745e-9
0.196, 1.745e-9
0.197, 1.745e-9
0.198, 1.745e-9
0.199, 1.764e-9
0.200, 1.773e-9
0.201, 1.773e-9
0.202, 1.774e-9
0.203, 1.776e-9
0.204, 1.772e-9
0.205, 1.771e-9
0.206, 1.779e-9
0.207, 1.782e-9
0.208, 1.788e-9
0.209, 1.794e-9
0.210, 1.808e-9
0.211, 1.814e-9
0.212, 1.819e-9
0.213, 1.821e-9
0.214, 1.820e-9
0.215, 1.819e-9
0.216, 1.824e-9
0.217, 1.836e-9
0.218, 1.847e-9
0.219, 1.851e-9
0.220, 1.852e-9
0.221, 1.846e-9
0.222, 1.848e-9
0.223, 1.865e-9
0.224, 1.866e-9
0.225, 1.869e-9
0.226, 1.866e-9
0.227, 1.859e-9
0.228, 1.859e-9
0.229, 1.862e-9
0.230, 1.860e-9
0.231, 1.862e-9
0.232, 1.862e-9
0.233, 1.858e-9
0.234, 1.854e-9
0.235, 1.851e-9
0.236, 1.847e-9
0.237, 1.850e-9
0.238, 1.849e-9
0.239, 1.846e-9
0.240, 1.846e-9
0.241, 1.848e-9
0.242, 1.845e-9
0.243, 1.845e-9
0.244, 1.843e-9
0.245, 1.840e-9
0.246, 1.845e-9
0.247, 1.849e-9
0.248, 1.855e-9
0.249, 1.858e-9
0.250, 1.855e-9
0.251, 1.846e-9
0.252, 1.854e-9
0.253, 1.867e-9
0.254, 1.862e-9
0.255, 1.861e-9
0.256, 1.865e-9
0.257, 1.865e-9
0.258, 1.867e-9
0.259, 1.873e-9
0.260, 1.883e-9
0.261, 1.880e-9
0.262, 1.879e-9
0.263, 1.886e-9
0.264, 1.881e-9
0.265, 1.883e-9
0.266, 1.895e-9
0.267, 1.885e-9
0.268, 1.882e-9
0.269, 1.883e-9
0.270, 1.886e-9
0.271, 1.894e-9
0.272, 1.897e-9
0.273, 1.895e-9
0.274, 1.906e-9
0.275, 1.910e-9
0.276, 1.910e-9
0.277, 1.907e-9
0.278, 1.915e-9
0.279, 1.937e-9
0.280, 1.944e-9
0.281, 1.955e-9
0.282, 1.952e-9
0.283, 1.956e-9
0.284, 1.970e-9
0.285, 1.977e-9
0.286, 1.993e-9
0.287, 1.983e-9
0.288, 1.980e-9
0.289, 1.988e-9
0.290, 1.987e-9
0.291, 1.983e-9
0.292, 1.980e-9
0.293, 1.979e-9
0.294, 1.987e-9
0.295, 1.989e-9
0.296, 1.998e-9
0.297, 1.996e-9
0.298, 2.022e-9
0.299, 2.017e-9
0.300, 2.001e-9
0.301, 1.995e-9
0.302, 1.999e-9
0.303, 1.996e-9
0.304, 1.997e-9
0.305, 2.003e-9
0.306, 2.010e-9
0.307, 2.031e-9
0.308, 2.027e-9
0.309, 2.020e-9
0.310, 2.030e-9
0.311, 2.030e-9
0.312, 2.035e-9
0.313, 2.045e-9
0.314, 2.052e-9
0.315, 2.049e-9
0.316, 2.054e-9
0.317, 2.050e-9
0.318, 2.047e-9
0.319, 2.055e-9
0.320, 2.064e-9
0.321, 2.063e-9
0.322, 2.070e-9
0.323, 2.088e-9
0.324, 2.106e-9
0.325, 2.110e-9
0.326, 2.113e-9
0.327, 2.109e-9
0.328, 2.108e-9
0.329, 2.113e-9
0.330, 2.119e-9
0.331, 2.114e-9
0.332, 2.120e-9
0.333, 2.127e-9
0.334, 2.115e-9
0.335, 2.113e-9
0.336, 2.115e-9
0.337, 2.124e-9
0.338, 2.123e-9
0.339, 2.123e-9
0.340, 2.127e-9
0.341, 2.134e-9
0.342, 2.133e-9
0.343, 2.127e-9
0.344, 2.128e-9
0.345, 2.140e-9
0.346, 2.137e-9
0.347, 2.132e-9
0.348, 2.137e-9
0.349, 2.136e-9
0.350, 2.139e-9
0.351, 2.143e-9
0.352, 2.147e-9
0.353, 2.149e-9
0.354, 2.157e-9
0.355, 2.175e-9
0.356, 2.179e-9
0.357, 2.178e-9
0.358, 2.180e-9
0.359, 2.177e-9
0.360, 2.174e-9
0.361, 2.181e-9
0.362, 2.185e-9
0.363, 2.175e-9
0.364, 2.190e-9
0.365, 2.193e-9
0.366, 2.199e-9
0.367, 2.202e-9
0.368, 2.201e-9
0.369, 2.208e-9
0.370, 2.202e-9
0.371, 2.198e-9
0.372, 2.201e-9
0.373, 2.203e-9
0.374, 2.212e-9
0.375, 2.214e-9
0.376, 2.211e-9
0.377, 2.216e-9
0.378, 2.221e-9
0.379, 2.217e-9
0.380, 2.219e-9
0.381, 2.222e-9
0.382, 2.224e-9
0.383, 2.220e-9
0.384, 2.222e-9
0.385, 2.232e-9
0.386, 2.230e-9
0.387, 2.233e-9
0.388, 2.234e-9
0.389, 2.234e-9
0.390, 2.240e-9
0.391, 2.245e-9
0.392, 2.251e-9
0.393, 2.257e-9
0.394, 2.263e-9
0.395, 2.265e-9
0.396, 2.265e-9
0.397, 2.271e-9
0.398, 2.275e-9
0.399, 2.276e-9
0.400, 2.276e-9
0.401, 2.278e-9
0.402, 2.280e-9
0.403, 2.291e-9
0.404, 2.300e-9
0.405, 2.298e-9
0.406, 2.291e-9
0.407, 2.294e-9
0.408, 2.319e-9
0.409, 2.318e-9
0.410, 2.312e-9
0.411, 2.313e-9
0.412, 2.334e-9
0.413, 2.336e-9
0.414, 2.326e-9
0.415, 2.329e-9
0.416, 2.348e-9
0.417, 2.368e-9
0.418, 2.368e-9
0.419, 2.369e-9
0.420, 2.369e-9
0.421, 2.386e-9
0.422, 2.386e-9
0.423, 2.390e-9
0.424, 2.399e-9
0.425, 2.401e-9
0.426, 2.397e-9
0.427, 2.401e-9
0.428, 2.405e-9
0.429, 2.410e-9
0.430, 2.409e-9
0.431, 2.411e-9
0.432, 2.412e-9
0.433, 2.418e-9
0.434, 2.416e-9
0.435, 2.417e-9
0.436, 2.422e-9
0.437, 2.423e-9
0.438, 2.431e-9
0.439, 2.436e-9
0.440, 2.444e-9
0.441, 2.440e-9
0.442, 2.445e-9
0.443, 2.459e-9
0.444, 2.464e-9
0.445, 2.454e-9
0.446, 2.456e-9
0.447, 2.482e-9
0.448, 2.460e-9
0.449, 2.463e-9
0.450, 2.468e-9
0.451, 2.470e-9
0.452, 2.477e-9
0.453, 2.480e-9
0.454, 2.485e-9
0.455, 2.497e-9
0.456, 2.509e-9
0.457, 2.507e-9
0.458, 2.505e-9
0.459, 2.504e-9
0.460, 2.505e-9
0.461, 2.527e-9
0.462, 2.531e-9
0.463, 2.521e-9
0.464, 2.529e-9
0.465, 2.539e-9
0.466, 2.543e-9
0.467, 2.545e-9
0.468, 2.548e-9
0.469, 2.556e-9
0.470, 2.566e-9
0.471, 2.582e-9
0.472, 2.588e-9
0.473, 2.587e-9
0.474, 2.587e-9
0.475, 2.580e-9
0.476, 2.585e-9
0.477, 2.587e-9
0.478, 2.601e-9
0.479, 2.594e-9
0.480, 2.597e-9
0.481, 2.607e-9
0.482, 2.611e-9
0.483, 2.604e-9
0.484, 2.606e-9
0.485, 2.612e-9
0.486, 2.616e-9
0.487, 2.610e-9
0.488, 2.632e-9
0.489, 2.644e-9
0.490, 2.627e-9
0.491, 2.625e-9
0.492, 2.633e-9
0.493, 2.641e-9
0.494, 2.635e-9
0.495, 2.638e-9
0.496, 2.641e-9
0.497, 2.651e-9
0.498, 2.651e-9
0.499, 2.657e-9
0.500, 2.644e-9
0.499, 2.579e-9
0.498, 2.531e-9
0.497, 2.501e-9
0.496, 2.477e-9
0.495, 2.461e-9
0.494, 2.437e-9
0.493, 2.409e-9
0.492, 2.391e-9
0.491, 2.378e-9
0.490, 2.384e-9
0.489, 2.397e-9
0.488, 2.406e-9
0.487, 2.416e-9
0.486, 2.426e-9
0.485, 2.426e-9
0.484, 2.412e-9
0.483, 2.417e-9
0.482, 2.400e-9
0.481, 2.389e-9
0.480, 2.377e-9
0.479, 2.365e-9
0.478, 2.353e-9
0.477, 2.338e-9
0.476, 2.314e-9
0.475, 2.292e-9
0.474, 2.281e-9
0.473, 2.270e-9
0.472, 2.251e-9
0.471, 2.243e-9
0.470, 2.235e-9
0.469, 2.225e-9
0.468, 2.213e-9
0.467, 2.208e-9
0.466, 2.191e-9
0.465, 2.171e-9
0.464, 2.155e-9
0.463, 2.143e-9
0.462, 2.126e-9
0.461, 2.111e-9
0.460, 2.105e-9
0.459, 2.097e-9
0.458, 2.076e-9
0.457, 2.055e-9
0.456, 2.043e-9
0.455, 2.034e-9
0.454, 2.025e-9
0.453, 2.011e-9
0.452, 1.998e-9
0.451, 1.986e-9
0.450, 1.980e-9
0.449, 1.977e-9
0.448, 1.965e-9
0.447, 1.956e-9
0.446, 1.949e-9
0.445, 1.936e-9
0.444, 1.924e-9
0.443, 1.919e-9
0.442, 1.908e-9
0.441, 1.901e-9
0.440, 1.878e-9
0.439, 1.864e-9
0.438, 1.851e-9
0.437, 1.839e-9
0.436, 1.836e-9
0.435, 1.831e-9
0.434, 1.847e-9
0.433, 1.825e-9
0.432, 1.806e-9
0.431, 1.792e-9
0.430, 1.777e-9
0.429, 1.761e-9
0.428, 1.753e-9
0.427, 1.748e-9
0.426, 1.737e-9
0.425, 1.724e-9
0.424, 1.716e-9
0.423, 1.704e-9
0.422, 1.699e-9
0.421, 1.693e-9
0.420, 1.676e-9
0.419, 1.662e-9
0.418, 1.653e-9
0.417, 1.644e-9
0.416, 1.635e-9
0.415, 1.629e-9
0.414, 1.631e-9
0.413, 1.627e-9
0.412, 1.612e-9
0.411, 1.604e-9
0.410, 1.599e-9
0.409, 1.592e-9
0.408, 1.581e-9
0.407, 1.573e-9
0.406, 1.575e-9
0.405, 1.562e-9
0.404, 1.553e-9
0.403, 1.542e-9
0.402, 1.540e-9
0.401, 1.529e-9
0.400, 1.518e-9
0.399, 1.511e-9
0.398, 1.508e-9
0.397, 1.491e-9
0.396, 1.483e-9
0.395, 1.479e-9
0.394, 1.470e-9
0.393, 1.460e-9
0.392, 1.458e-9
0.391, 1.449e-9
0.390, 1.441e-9
0.389, 1.437e-9
0.388, 1.426e-9
0.387, 1.416e-9
0.386, 1.405e-9
0.385, 1.402e-9
0.384, 1.395e-9
0.383, 1.382e-9
0.382, 1.375e-9
0.381, 1.368e-9
0.380, 1.354e-9
0.379, 1.342e-9
0.378, 1.334e-9
0.377, 1.330e-9
0.376, 1.325e-9
0.375, 1.312e-9
0.374, 1.309e-9
0.373, 1.311e-9
0.372, 1.296e-9
0.371, 1.288e-9
0.370, 1.281e-9
0.369, 1.275e-9
0.368, 1.269e-9
0.367, 1.261e-9
0.366, 1.250e-9
0.365, 1.241e-9
0.364, 1.235e-9
0.363, 1.230e-9
0.362, 1.223e-9
0.361, 1.214e-9
0.360, 1.208e-9
0.359, 1.202e-9
0.358, 1.196e-9
0.357, 1.188e-9
0.356, 1.179e-9
0.355, 1.170e-9
0.354, 1.162e-9
0.353, 1.158e-9
0.352, 1.149e-9
0.351, 1.142e-9
0.350, 1.140e-9
0.349, 1.132e-9
0.348, 1.127e-9
0.347, 1.124e-9
0.346, 1.117e-9
0.345, 1.109e-9
0.344, 1.105e-9
0.343, 1.094e-9
0.342, 1.086e-9
0.341, 1.079e-9
0.340, 1.074e-9
0.339, 1.075e-9
0.338, 1.068e-9
0.337, 1.061e-9
0.336, 1.052e-9
0.335, 1.044e-9
0.334, 1.036e-9
0.333, 1.028e-9
0.332, 1.023e-9
0.331, 1.016e-9
0.330, 1.010e-9
0.329, 1.006e-9
0.328, 9.986e-10
0.327, 9.899e-10
0.326, 9.837e-10
0.325, 9.779e-10
0.324, 9.712e-10
0.323, 9.664e-10
0.322, 9.604e-10
0.321, 9.551e-10
0.320, 9.480e-10
0.319, 9.379e-10
0.318, 9.311e-10
0.317, 9.270e-10
0.316, 9.208e-10
0.315, 9.133e-10
0.314, 9.053e-10
0.313, 8.973e-10
0.312, 8.902e-10
0.311, 8.881e-10
0.310, 8.809e-10
0.309, 8.708e-10
0.308, 8.647e-10
0.307, 8.558e-10
0.306, 8.488e-10
0.305, 8.448e-10
0.304, 8.388e-10
0.303, 8.331e-10
0.302, 8.271e-10
0.301, 8.184e-10
0.300, 8.127e-10
0.299, 8.077e-10
0.298, 7.992e-10
0.297, 7.923e-10
0.296, 7.855e-10
0.295, 7.793e-10
0.294, 7.740e-10
0.293, 7.663e-10
0.292, 7.598e-10
0.291, 7.557e-10
0.290, 7.504e-10
0.289, 7.442e-10
0.288, 7.451e-10
0.287, 7.360e-10
0.286, 7.262e-10
0.285, 7.182e-10
0.284, 7.115e-10
0.283, 7.054e-10
0.282, 6.996e-10
0.281, 6.939e-10
0.280, 6.876e-10
0.279, 6.831e-10
0.278, 6.756e-10
0.277, 6.687e-10
0.276, 6.633e-10
0.275, 6.575e-10
0.274, 6.516e-10
0.273, 6.465e-10
0.272, 6.413e-10
0.271, 6.349e-10
0.270, 6.306e-10
0.269, 6.247e-10
0.268, 6.178e-10
0.267, 6.134e-10
0.266, 6.085e-10
0.265, 6.013e-10
0.264, 5.941e-10
0.263, 5.893e-10
0.262, 5.847e-10
0.261, 5.797e-10
0.260, 5.725e-10
0.259, 5.664e-10
0.258, 5.609e-10
0.257, 5.570e-10
0.256, 5.489e-10
0.255, 5.421e-10
0.254, 5.362e-10
0.253, 5.330e-10
0.252, 5.242e-10
0.251, 5.180e-10
0.250, 5.123e-10
0.249, 5.058e-10
0.248, 5.005e-10
0.247, 4.949e-10
0.246, 4.940e-10
0.245, 4.860e-10
0.244, 4.779e-10
0.243, 4.712e-10
0.242, 4.626e-10
0.241, 4.543e-10
0.240, 4.467e-10
0.239, 4.399e-10
0.238, 4.330e-10
0.237, 4.263e-10
0.236, 4.217e-10
0.235, 4.153e-10
0.234, 4.107e-10
0.233, 4.051e-10
0.232, 3.997e-10
0.231, 3.945e-10
0.230, 3.898e-10
0.229, 3.841e-10
0.228, 3.782e-10
0.227, 3.740e-10
0.226, 3.681e-10
0.225, 3.616e-10
0.224, 3.550e-10
0.223, 3.483e-10
0.222, 3.442e-10
0.221, 3.383e-10
0.220, 3.338e-10
0.219, 3.274e-10
0.218, 3.198e-10
0.217, 3.123e-10
0.216, 3.069e-10
0.215, 2.999e-10
0.214, 2.951e-10
0.213, 2.898e-10
0.212, 2.837e-10
0.211, 2.776e-10
0.210, 2.723e-10
0.209, 2.668e-10
0.208, 2.623e-10
0.207, 2.571e-10
0.206, 2.507e-10
0.205, 2.446e-10
0.204, 2.402e-10
0.203, 2.331e-10
0.202, 2.271e-10
0.201, 2.236e-10
0.200, 2.158e-10
0.199, 2.101e-10
0.198, 2.034e-10
0.197, 1.979e-10
0.196, 1.935e-10
0.195, 1.863e-10
0.194, 1.808e-10
0.193, 1.746e-10
0.192, 1.687e-10
0.191, 1.643e-10
0.190, 1.593e-10
0.189, 1.548e-10
0.188, 1.474e-10
0.187, 1.415e-10
0.186, 1.368e-10
0.185, 1.311e-10
0.184, 1.258e-10
0.183, 1.208e-10
0.182, 1.155e-10
0.181, 1.097e-10
0.180, 1.038e-10
0.179, 1.031e-10
0.178, 9.391e-11
0.177, 8.690e-11
0.176, 7.900e-11
0.175, 7.374e-11
0.174, 6.915e-11
0.173, 6.369e-11
0.172, 5.677e-11
0.171, 5.180e-11
0.170, 4.625e-11
0.169, 4.059e-11
0.168, 3.523e-11
0.167, 2.997e-11
0.166, 2.392e-11
0.165, 1.739e-11
0.164, 1.057e-11
0.163, 5.498e-12
0.162, -4.484e-13
0.161, -6.687e-12
0.160, -1.254e-11
0.159, -1.946e-11
0.158, -2.306e-11
0.157, -2.950e-11
0.156, -3.759e-11
0.155, -4.383e-11
0.154, -4.890e-11
0.153, -5.523e-11
0.152, -6.011e-11
0.151, -6.625e-11
0.150, -7.073e-11
0.149, -7.863e-11
0.148, -8.321e-11
0.147, -8.769e-11
0.146, -9.315e-11
0.145, -9.832e-11
0.144, -1.048e-10
0.143, -1.104e-10
0.142, -1.161e-10
0.141, -1.204e-10
0.140, -1.253e-10
0.139, -1.326e-10
0.138, -1.374e-10
0.137, -1.419e-10
0.136, -1.478e-10
0.135, -1.538e-10
0.134, -1.589e-10
0.133, -1.645e-10
0.132, -1.705e-10
0.131, -1.750e-10
0.130, -1.804e-10
0.129, -1.860e-10
0.128, -1.906e-10
0.127, -1.962e-10
0.126, -2.010e-10
0.125, -2.071e-10
0.124, -2.116e-10
0.123, -2.160e-10
0.122, -2.208e-10
0.121, -2.275e-10
0.120, -2.337e-10
0.119, -2.380e-10
0.118, -2.419e-10
0.117, -2.487e-10
0.116, -2.570e-10
0.115, -2.623e-10
0.114, -2.693e-10
0.113, -2.745e-10
0.112, -2.796e-10
0.111, -2.855e-10
0.110, -2.910e-10
0.109, -2.908e-10
0.108, -3.019e-10
0.107, -3.080e-10
0.106, -3.118e-10
0.105, -3.180e-10
0.104, -3.224e-10
0.103, -3.278e-10
0.102, -3.346e-10
0.101, -3.382e-10
0.100, -3.433e-10
0.099, -3.475e-10
0.098, -3.518e-10
0.097, -3.561e-10
0.096, -3.601e-10
0.095, -3.662e-10
0.094, -3.715e-10
0.093, -3.765e-10
0.092, -3.809e-10
0.091, -3.874e-10
0.090, -3.928e-10
0.089, -3.979e-10
0.088, -4.034e-10
0.087, -4.091e-10
0.086, -4.149e-10
0.085, -4.199e-10
0.084, -4.258e-10
0.083, -4.307e-10
0.082, -4.352e-10
0.081, -4.400e-10
0.080, -4.458e-10
0.079, -4.515e-10
0.078, -4.572e-10
0.077, -4.614e-10
0.076, -4.677e-10
0.075, -4.752e-10
0.074, -4.814e-10
0.073, -4.861e-10
0.072, -4.922e-10
0.071, -4.979e-10
0.070, -5.038e-10
0.069, -5.087e-10
0.068, -5.145e-10
0.067, -5.211e-10
0.066, -5.261e-10
0.065, -5.316e-10
0.064, -5.353e-10
0.063, -5.412e-10
0.062, -5.459e-10
0.061, -5.511e-10
0.060, -5.548e-10
0.059, -5.595e-10
0.058, -5.642e-10
0.057, -5.699e-10
0.056, -5.744e-10
0.055, -5.788e-10
0.054, -5.839e-10
0.053, -5.881e-10
0.052, -5.924e-10
0.051, -5.955e-10
0.050, -6.003e-10
0.049, -6.052e-10
0.048, -6.102e-10
0.047, -6.142e-10
0.046, -6.201e-10
0.045, -6.253e-10
0.044, -6.304e-10
0.043, -6.340e-10
0.042, -6.393e-10
0.041, -6.443e-10
0.040, -6.493e-10
0.039, -6.550e-10
0.038, -6.601e-10
0.037, -6.648e-10
0.036, -6.706e-10
0.035, -6.757e-10
0.034, -6.809e-10
0.033, -6.863e-10
0.032, -6.912e-10
0.031, -6.962e-10
0.030, -7.006e-10
0.029, -7.063e-10
0.028, -7.114e-10
0.027, -7.169e-10
0.026, -7.222e-10
0.025, -7.286e-10
0.024, -7.346e-10
0.023, -7.398e-10
0.022, -7.467e-10
0.021, -7.534e-10
0.020, -7.596e-10
0.019, -7.660e-10
0.018, -7.729e-10
0.017, -7.785e-10
0.016, -7.851e-10
0.015, -7.907e-10
0.014, -7.970e-10
0.013, -8.035e-10
0.012, -8.070e-10
0.011, -8.121e-10
0.010, -8.180e-10
0.009, -8.249e-10
0.008, -8.309e-10
0.007, -8.376e-10
0.006, -8.449e-10
0.005, -8.529e-10
0.004, -8.615e-10
0.003, -8.690e-10
0.002, -8.768e-10
0.001, -8.859e-10
-0.000, -8.912e-10
-0.001, -8.997e-10
-0.002, -9.103e-10
-0.003, -9.207e-10
-0.004, -9.295e-10
-0.005, -9.386e-10
-0.006, -9.512e-10
-0.007, -9.646e-10
-0.008, -9.823e-10
-0.009, -1.001e-9
-0.010, -1.018e-9
-0.011, -1.039e-9
-0.012, -1.060e-9
-0.013, -1.082e-9
-0.014, -1.109e-9
-0.015, -1.134e-9
-0.016, -1.161e-9
-0.017, -1.189e-9
-0.018, -1.217e-9
-0.019, -1.245e-9
-0.020, -1.268e-9
-0.021, -1.296e-9
-0.022, -1.310e-9
-0.023, -1.318e-9
-0.024, -1.324e-9
-0.025, -1.333e-9
-0.026, -1.340e-9
-0.027, -1.358e-9
-0.028, -1.372e-9
-0.029, -1.379e-9
-0.030, -1.386e-9
-0.031, -1.402e-9
-0.032, -1.430e-9
-0.033, -1.440e-9
-0.034, -1.426e-9
-0.035, -1.420e-9
-0.036, -1.403e-9
-0.037, -1.394e-9
-0.038, -1.416e-9
-0.039, -1.454e-9
-0.040, -1.453e-9
-0.041, -1.540e-9
-0.042, -1.771e-9
-0.043, -1.888e-9
-0.044, -1.844e-9
-0.045, -1.813e-9
-0.046, -1.832e-9
-0.047, -1.809e-9
-0.048, -1.792e-9
-0.049, -2.117e-9
-0.050, -2.530e-9
-0.051, -2.704e-9
-0.052, -2.784e-9
-0.053, -2.784e-9
-0.054, -2.519e-9
-0.055, -2.403e-9
-0.056, -2.264e-9
-0.057, -2.409e-9
-0.058, -3.500e-9
-0.059, -4.370e-9
-0.060, -4.497e-9
-0.061, -5.473e-9
-0.062, -6.225e-9
-0.063, -5.610e-9
-0.064, -4.573e-9
-0.065, -3.612e-9
-0.066, -3.037e-9
-0.067, -2.751e-9
-0.068, -2.799e-9
-0.069, -3.027e-9
-0.070, -2.762e-9
-0.071, -2.570e-9
-0.072, -3.191e-9
-0.073, -3.212e-9
-0.074, -2.495e-9
-0.075, -1.761e-9
-0.076, -1.484e-9
-0.077, -1.346e-9
-0.078, -1.293e-9
-0.079, -1.240e-9
-0.080, -1.196e-9
-0.081, -1.196e-9
-0.082, -1.202e-9
-0.083, -1.205e-9
-0.084, -1.206e-9
-0.085, -1.218e-9
-0.086, -1.258e-9
-0.087, -1.821e-9
-0.088, -1.607e-9
-0.089, -1.270e-9
-0.090, -1.218e-9
-0.091, -1.223e-9
-0.092, -1.226e-9
-0.093, -1.237e-9
-0.094, -1.233e-9
-0.095, -1.229e-9
-0.096, -1.238e-9
-0.097, -1.245e-9
-0.098, -1.240e-9
-0.099, -1.247e-9
-0.100, -1.256e-9
-0.101, -1.265e-9
-0.102, -1.276e-9
-0.103, -1.291e-9
-0.104, -1.276e-9
-0.105, -1.276e-9
-0.106, -1.268e-9
-0.107, -1.257e-9
-0.108, -1.262e-9
-0.109, -1.263e-9
-0.110, -1.267e-9
-0.111, -1.272e-9
-0.112, -1.276e-9
-0.113, -1.274e-9
-0.114, -1.278e-9
-0.115, -1.278e-9
-0.116, -1.283e-9
-0.117, -1.303e-9
-0.118, -1.319e-9
-0.119, -1.315e-9
-0.120, -1.374e-9
-0.121, -1.387e-9
-0.122, -1.353e-9
-0.123, -1.331e-9
-0.124, -1.310e-9
-0.125, -1.310e-9
-0.126, -1.316e-9
-0.127, -1.319e-9
-0.128, -1.317e-9
-0.129, -1.314e-9
-0.130, -1.315e-9
-0.131, -1.319e-9
-0.132, -1.324e-9
-0.133, -1.329e-9
-0.134, -1.331e-9
-0.135, -1.353e-9
-0.136, -1.369e-9
-0.137, -1.382e-9
-0.138, -1.456e-9
-0.139, -1.537e-9
-0.140, -1.527e-9
-0.141, -1.567e-9
-0.142, -1.399e-9
-0.143, -1.339e-9
-0.144, -1.339e-9
-0.145, -1.343e-9
-0.146, -1.346e-9
-0.147, -1.349e-9
-0.148, -1.352e-9
-0.149, -1.357e-9
-0.150, -1.360e-9
-0.151, -1.361e-9
-0.152, -1.366e-9
-0.153, -1.370e-9
-0.154, -1.371e-9
-0.155, -1.372e-9
-0.156, -1.376e-9
-0.157, -1.380e-9
-0.158, -1.382e-9
-0.159, -1.386e-9
-0.160, -1.393e-9
-0.161, -1.400e-9
-0.162, -1.412e-9
-0.163, -1.398e-9
-0.164, -1.400e-9
-0.165, -1.402e-9
-0.166, -1.402e-9
-0.167, -1.405e-9
-0.168, -1.407e-9
-0.169, -1.411e-9
-0.170, -1.415e-9
-0.171, -1.420e-9
-0.172, -1.425e-9
-0.173, -1.465e-9
-0.174, -1.440e-9
-0.175, -1.433e-9
-0.176, -1.436e-9
-0.177, -1.437e-9
-0.178, -1.436e-9
-0.179, -1.436e-9
-0.180, -1.441e-9
-0.181, -1.445e-9
-0.182, -1.448e-9
-0.183, -1.452e-9
-0.184, -1.456e-9
-0.185, -1.457e-9
-0.186, -1.458e-9
-0.187, -1.458e-9
-0.188, -1.462e-9
-0.189, -1.472e-9
-0.190, -1.483e-9
-0.191, -1.482e-9
-0.192, -1.478e-9
-0.193, -1.482e-9
-0.194, -1.485e-9
-0.195, -1.492e-9
-0.196, -1.504e-9
-0.197, -1.509e-9
-0.198, -1.501e-9
-0.199, -1.505e-9
-0.200, -1.508e-9
-0.201, -1.516e-9
-0.202, -1.518e-9
-0.203, -1.521e-9
-0.204, -1.526e-9
-0.205, -1.528e-9
-0.206, -1.525e-9
-0.207, -1.530e-9
-0.208, -1.541e-9
-0.209, -1.534e-9
-0.210, -1.536e-9
-0.211, -1.539e-9
-0.212, -1.543e-9
-0.213, -1.546e-9
-0.214, -1.548e-9
-0.215, -1.551e-9
-0.216, -1.553e-9
-0.217, -1.553e-9
-0.218, -1.553e-9
-0.219, -1.557e-9
-0.220, -1.563e-9
-0.221, -1.563e-9
-0.222, -1.562e-9
-0.223, -1.564e-9
-0.224, -1.568e-9
-0.225, -1.573e-9
-0.226, -1.578e-9
-0.227, -1.582e-9
-0.228, -1.585e-9
-0.229, -1.589e-9
-0.230, -1.592e-9
-0.231, -1.596e-9
-0.232, -1.600e-9
-0.233, -1.602e-9
-0.234, -1.605e-9
-0.235, -1.609e-9
-0.236, -1.613e-9
-0.237, -1.617e-9
-0.238, -1.621e-9
-0.239, -1.628e-9
-0.240, -1.633e-9
-0.241, -1.637e-9
-0.242, -1.640e-9
-0.243, -1.641e-9
-0.244, -1.648e-9
-0.245, -1.650e-9
-0.246, -1.649e-9
-0.247, -1.653e-9
-0.248, -1.656e-9
-0.249, -1.658e-9
-0.250, -1.661e-9
-0.251, -1.665e-9
-0.252, -1.668e-9
-0.253, -1.673e-9
-0.254, -1.678e-9
-0.255, -1.688e-9
-0.256, -1.700e-9
-0.257, -1.699e-9
-0.258, -1.699e-9
-0.259, -1.703e-9
-0.260, -1.708e-9
-0.261, -1.709e-9
-0.262, -1.713e-9
-0.263, -1.717e-9
-0.264, -1.722e-9
-0.265, -1.730e-9
-0.266, -1.740e-9
-0.267, -1.731e-9
-0.268, -1.732e-9
-0.269, -1.735e-9
-0.270, -1.740e-9
-0.271, -1.748e-9
-0.272, -1.751e-9
-0.273, -1.753e-9
-0.274, -1.757e-9
-0.275, -1.761e-9
-0.276, -1.767e-9
-0.277, -1.769e-9
-0.278, -1.773e-9
-0.279, -1.772e-9
-0.280, -1.940e-9
-0.281, -1.950e-9
-0.282, -1.791e-9
-0.283, -1.780e-9
-0.284, -1.780e-9
-0.285, -1.782e-9
-0.286, -1.785e-9
-0.287, -1.788e-9
-0.288, -1.793e-9
-0.289, -1.794e-9
-0.290, -1.799e-9
-0.291, -1.800e-9
-0.292, -1.801e-9
-0.293, -1.803e-9
-0.294, -1.806e-9
-0.295, -1.809e-9
-0.296, -1.813e-9
-0.297, -1.818e-9
-0.298, -1.824e-9
-0.299, -1.827e-9
-0.300, -1.830e-9
-0.301, -1.833e-9
-0.302, -1.834e-9
-0.303, -1.838e-9
-0.304, -1.840e-9
-0.305, -1.843e-9
-0.306, -1.847e-9
-0.307, -1.854e-9
-0.308, -1.859e-9
-0.309, -1.861e-9
-0.310, -1.863e-9
-0.311, -1.867e-9
-0.312, -1.872e-9
-0.313, -1.876e-9
-0.314, -1.880e-9
-0.315, -1.885e-9
-0.316, -1.890e-9
-0.317, -1.894e-9
-0.318, -1.896e-9
-0.319, -1.900e-9
-0.320, -1.907e-9
-0.321, -1.910e-9
-0.322, -1.915e-9
-0.323, -1.920e-9
-0.324, -1.924e-9
-0.325, -1.928e-9
-0.326, -1.930e-9
-0.327, -1.932e-9
-0.328, -1.935e-9
-0.329, -1.938e-9
-0.330, -1.943e-9
-0.331, -1.946e-9
-0.332, -1.952e-9
-0.333, -1.957e-9
-0.334, -1.959e-9
-0.335, -1.962e-9
-0.336, -1.970e-9
-0.337, -1.973e-9
-0.338, -1.975e-9
-0.339, -1.979e-9
-0.340, -1.984e-9
-0.341, -1.991e-9
-0.342, -1.994e-9
-0.343, -1.996e-9
-0.344, -2.001e-9
-0.345, -2.004e-9
-0.346, -2.007e-9
-0.347, -2.011e-9
-0.348, -2.020e-9
-0.349, -2.024e-9
-0.350, -2.028e-9
-0.351, -2.030e-9
-0.352, -2.035e-9
-0.353, -2.039e-9
-0.354, -2.043e-9
-0.355, -2.047e-9
-0.356, -2.049e-9
-0.357, -2.057e-9
-0.358, -2.061e-9
-0.359, -2.062e-9
-0.360, -2.061e-9
-0.361, -2.066e-9
-0.362, -2.070e-9
-0.363, -2.074e-9
-0.364, -2.079e-9
-0.365, -2.085e-9
-0.366, -2.090e-9
-0.367, -2.097e-9
-0.368, -2.099e-9
-0.369, -2.101e-9
-0.370, -2.104e-9
-0.371, -2.108e-9
-0.372, -2.111e-9
-0.373, -2.118e-9
-0.374, -2.122e-9
-0.375, -2.126e-9
-0.376, -2.129e-9
-0.377, -2.133e-9
-0.378, -2.137e-9
-0.379, -2.144e-9
-0.380, -2.148e-9
-0.381, -2.153e-9
-0.382, -2.156e-9
-0.383, -2.159e-9
-0.384, -2.165e-9
-0.385, -2.168e-9
-0.386, -2.170e-9
-0.387, -2.175e-9
-0.388, -2.182e-9
-0.389, -2.192e-9
-0.390, -2.197e-9
-0.391, -2.200e-9
-0.392, -2.203e-9
-0.393, -2.208e-9
-0.394, -2.213e-9
-0.395, -2.216e-9
-0.396, -2.222e-9
-0.397, -2.226e-9
-0.398, -2.233e-9
-0.399, -2.240e-9
-0.400, -2.250e-9
-0.401, -2.251e-9
-0.402, -2.255e-9
-0.403, -2.262e-9
-0.404, -2.267e-9
-0.405, -2.270e-9
-0.406, -2.274e-9
-0.407, -2.279e-9
-0.408, -2.282e-9
-0.409, -2.286e-9
-0.410, -2.290e-9
-0.411, -2.294e-9
-0.412, -2.297e-9
-0.413, -2.302e-9
-0.414, -2.304e-9
-0.415, -2.306e-9
-0.416, -2.310e-9
-0.417, -2.312e-9
-0.418, -2.319e-9
-0.419, -2.326e-9
-0.420, -2.328e-9
-0.421, -2.329e-9
-0.422, -2.333e-9
-0.423, -2.336e-9
-0.424, -2.341e-9
-0.425, -2.343e-9
-0.426, -2.346e-9
-0.427, -2.349e-9
-0.428, -2.355e-9
-0.429, -2.359e-9
-0.430, -2.364e-9
-0.431, -2.368e-9
-0.432, -2.371e-9
-0.433, -2.374e-9
-0.434, -2.375e-9
-0.435, -2.381e-9
-0.436, -2.384e-9
-0.437, -2.389e-9
-0.438, -2.392e-9
-0.439, -2.396e-9
-0.440, -2.400e-9
-0.441, -2.404e-9
-0.442, -2.410e-9
-0.443, -2.433e-9
-0.444, -2.447e-9
-0.445, -2.451e-9
-0.446, -2.453e-9
-0.447, -2.457e-9
-0.448, -2.462e-9
-0.449, -2.466e-9
-0.450, -2.469e-9
-0.451, -2.471e-9
-0.452, -2.475e-9
-0.453, -2.478e-9
-0.454, -2.482e-9
-0.455, -2.487e-9
-0.456, -2.489e-9
-0.457, -2.490e-9
-0.458, -2.494e-9
-0.459, -2.500e-9
-0.460, -2.504e-9
-0.461, -2.507e-9
-0.462, -2.511e-9
-0.463, -2.515e-9
-0.464, -2.518e-9
-0.465, -2.521e-9
-0.466, -2.525e-9
-0.467, -2.530e-9
-0.468, -2.535e-9
-0.469, -2.538e-9
-0.470, -2.542e-9
-0.471, -2.545e-9
-0.472, -2.550e-9
-0.473, -2.554e-9
-0.474, -2.558e-9
-0.475, -2.563e-9
-0.476, -2.565e-9
-0.477, -2.568e-9
-0.478, -2.574e-9
-0.479, -2.578e-9
-0.480, -2.579e-9
-0.481, -2.581e-9
-0.482, -2.584e-9
-0.483, -2.588e-9
-0.484, -2.592e-9
-0.485, -2.596e-9
-0.486, -2.601e-9
-0.487, -2.607e-9
-0.488, -2.612e-9
-0.489, -2.617e-9
-0.490, -2.621e-9
-0.491, -2.622e-9
-0.492, -2.626e-9
-0.493, -2.628e-9
-0.494, -2.633e-9
-0.495, -2.638e-9
-0.496, -2.642e-9
-0.497, -2.647e-9
-0.498, -2.650e-9
-0.499, -2.653e-9
