Nov. 18, 2024   15:03:26
Cyclic Voltammetry
File: +12 2319-1 fto cv_cells_light_bulk.bin
Data Source:  Experiment
Instrument Model:  CHI920C
Ref. Electrode: 
Header: 
Note: 

Init E (V) = -0.5
High E (V) = 0.5
Low E (V) = -0.5
Init P/N = P
Scan Rate (V/s) = 0.05
Segment = 2
Sample Interval (V) = 0.001
Quiet Time (sec) = 10
Sensitivity (A/V) = 1e-7

Results:

Channel 1:
Segment 1:
Ep = 0.112V
ip = 5.191e-10A
Ah = 3.717e-10C

Segment 2:

Potential/V, Current/A

-0.500, -7.537e-10
-0.499, -7.389e-10
-0.498, -7.284e-10
-0.497, -7.197e-10
-0.496, -7.130e-10
-0.495, -7.074e-10
-0.494, -7.002e-10
-0.493, -6.931e-10
-0.492, -6.868e-10
-0.491, -6.807e-10
-0.490, -6.746e-10
-0.489, -6.684e-10
-0.488, -6.627e-10
-0.487, -6.572e-10
-0.486, -6.519e-10
-0.485, -6.459e-10
-0.484, -6.404e-10
-0.483, -6.352e-10
-0.482, -6.292e-10
-0.481, -6.231e-10
-0.480, -6.174e-10
-0.479, -6.129e-10
-0.478, -6.080e-10
-0.477, -6.024e-10
-0.476, -5.974e-10
-0.475, -5.926e-10
-0.474, -5.872e-10
-0.473, -5.823e-10
-0.472, -5.772e-10
-0.471, -5.727e-10
-0.470, -5.681e-10
-0.469, -5.640e-10
-0.468, -5.589e-10
-0.467, -5.535e-10
-0.466, -5.484e-10
-0.465, -5.430e-10
-0.464, -5.373e-10
-0.463, -5.325e-10
-0.462, -5.267e-10
-0.461, -5.207e-10
-0.460, -5.155e-10
-0.459, -5.102e-10
-0.458, -5.051e-10
-0.457, -4.996e-10
-0.456, -4.934e-10
-0.455, -4.881e-10
-0.454, -4.842e-10
-0.453, -4.798e-10
-0.452, -4.739e-10
-0.451, -4.697e-10
-0.450, -4.650e-10
-0.449, -4.606e-10
-0.448, -4.574e-10
-0.447, -4.535e-10
-0.446, -4.488e-10
-0.445, -4.441e-10
-0.444, -4.389e-10
-0.443, -4.345e-10
-0.442, -4.293e-10
-0.441, -4.256e-10
-0.440, -4.214e-10
-0.439, -4.173e-10
-0.438, -4.123e-10
-0.437, -4.095e-10
-0.436, -4.053e-10
-0.435, -4.015e-10
-0.434, -3.977e-10
-0.433, -3.927e-10
-0.432, -3.886e-10
-0.431, -3.846e-10
-0.430, -3.805e-10
-0.429, -3.759e-10
-0.428, -3.719e-10
-0.427, -3.677e-10
-0.426, -3.636e-10
-0.425, -3.605e-10
-0.424, -3.577e-10
-0.423, -3.532e-10
-0.422, -3.496e-10
-0.421, -3.464e-10
-0.420, -3.426e-10
-0.419, -3.396e-10
-0.418, -3.362e-10
-0.417, -3.324e-10
-0.416, -3.304e-10
-0.415, -3.270e-10
-0.414, -3.228e-10
-0.413, -3.209e-10
-0.412, -3.178e-10
-0.411, -3.150e-10
-0.410, -3.105e-10
-0.409, -3.069e-10
-0.408, -3.041e-10
-0.407, -3.003e-10
-0.406, -2.978e-10
-0.405, -2.936e-10
-0.404, -2.897e-10
-0.403, -2.867e-10
-0.402, -2.811e-10
-0.401, -2.773e-10
-0.400, -2.735e-10
-0.399, -2.700e-10
-0.398, -2.664e-10
-0.397, -2.620e-10
-0.396, -2.586e-10
-0.395, -2.546e-10
-0.394, -2.519e-10
-0.393, -2.482e-10
-0.392, -2.450e-10
-0.391, -2.428e-10
-0.390, -2.395e-10
-0.389, -2.367e-10
-0.388, -2.336e-10
-0.387, -2.311e-10
-0.386, -2.283e-10
-0.385, -2.253e-10
-0.384, -2.226e-10
-0.383, -2.198e-10
-0.382, -2.172e-10
-0.381, -2.131e-10
-0.380, -2.102e-10
-0.379, -2.077e-10
-0.378, -2.055e-10
-0.377, -2.029e-10
-0.376, -2.000e-10
-0.375, -1.972e-10
-0.374, -1.946e-10
-0.373, -1.919e-10
-0.372, -1.895e-10
-0.371, -1.864e-10
-0.370, -1.844e-10
-0.369, -1.821e-10
-0.368, -1.802e-10
-0.367, -1.782e-10
-0.366, -1.754e-10
-0.365, -1.724e-10
-0.364, -1.707e-10
-0.363, -1.677e-10
-0.362, -1.664e-10
-0.361, -1.644e-10
-0.360, -1.622e-10
-0.359, -1.591e-10
-0.358, -1.568e-10
-0.357, -1.537e-10
-0.356, -1.518e-10
-0.355, -1.485e-10
-0.354, -1.463e-10
-0.353, -1.441e-10
-0.352, -1.419e-10
-0.351, -1.386e-10
-0.350, -1.371e-10
-0.349, -1.352e-10
-0.348, -1.337e-10
-0.347, -1.312e-10
-0.346, -1.281e-10
-0.345, -1.265e-10
-0.344, -1.245e-10
-0.343, -1.231e-10
-0.342, -1.206e-10
-0.341, -1.190e-10
-0.340, -1.172e-10
-0.339, -1.148e-10
-0.338, -1.128e-10
-0.337, -1.111e-10
-0.336, -1.084e-10
-0.335, -1.066e-10
-0.334, -1.055e-10
-0.333, -1.036e-10
-0.332, -1.023e-10
-0.331, -1.002e-10
-0.330, -9.851e-11
-0.329, -9.676e-11
-0.328, -9.569e-11
-0.327, -9.462e-11
-0.326, -9.169e-11
-0.325, -9.013e-11
-0.324, -8.828e-11
-0.323, -8.652e-11
-0.322, -8.409e-11
-0.321, -8.272e-11
-0.320, -8.214e-11
-0.319, -7.960e-11
-0.318, -7.892e-11
-0.317, -7.746e-11
-0.316, -7.619e-11
-0.315, -7.327e-11
-0.314, -7.142e-11
-0.313, -7.005e-11
-0.312, -6.810e-11
-0.311, -6.703e-11
-0.310, -6.537e-11
-0.309, -6.362e-11
-0.308, -6.245e-11
-0.307, -5.933e-11
-0.306, -5.767e-11
-0.305, -5.650e-11
-0.304, -5.543e-11
-0.303, -5.280e-11
-0.302, -5.143e-11
-0.301, -4.929e-11
-0.300, -4.841e-11
-0.299, -4.675e-11
-0.298, -4.412e-11
-0.297, -4.324e-11
-0.296, -4.149e-11
-0.295, -4.012e-11
-0.294, -3.876e-11
-0.293, -3.671e-11
-0.292, -3.447e-11
-0.291, -3.379e-11
-0.290, -3.232e-11
-0.289, -2.969e-11
-0.288, -2.804e-11
-0.287, -2.648e-11
-0.286, -2.394e-11
-0.285, -2.287e-11
-0.284, -2.316e-11
-0.283, -2.462e-11
-0.282, -1.926e-11
-0.281, -1.790e-11
-0.280, -1.566e-11
-0.279, -1.449e-11
-0.278, -1.263e-11
-0.277, -1.078e-11
-0.276, -9.807e-12
-0.275, -8.734e-12
-0.274, -8.442e-12
-0.273, -6.590e-12
-0.272, -5.615e-12
-0.271, -3.080e-12
-0.270, -2.593e-12
-0.269, -8.383e-13
-0.268, 9.163e-13
-0.267, 2.086e-12
-0.266, 3.451e-12
-0.265, 4.426e-12
-0.264, 5.790e-12
-0.263, 7.740e-12
-0.262, 8.130e-12
-0.261, 9.300e-12
-0.260, 1.008e-11
-0.259, 1.105e-11
-0.258, 1.320e-11
-0.257, 1.525e-11
-0.256, 1.534e-11
-0.255, 1.681e-11
-0.254, 1.788e-11
-0.253, 1.876e-11
-0.252, 2.041e-11
-0.251, 2.148e-11
-0.250, 2.246e-11
-0.249, 2.382e-11
-0.248, 2.538e-11
-0.247, 2.626e-11
-0.246, 2.577e-11
-0.245, 2.743e-11
-0.244, 2.811e-11
-0.243, 3.026e-11
-0.242, 3.094e-11
-0.241, 3.260e-11
-0.240, 3.367e-11
-0.239, 3.445e-11
-0.238, 3.640e-11
-0.237, 3.650e-11
-0.236, 3.806e-11
-0.235, 3.874e-11
-0.234, 3.991e-11
-0.233, 4.079e-11
-0.232, 4.157e-11
-0.231, 4.205e-11
-0.230, 4.371e-11
-0.229, 4.391e-11
-0.228, 4.498e-11
-0.227, 4.644e-11
-0.226, 4.771e-11
-0.225, 4.742e-11
-0.224, 4.810e-11
-0.223, 4.907e-11
-0.222, 5.014e-11
-0.221, 5.112e-11
-0.220, 5.239e-11
-0.219, 5.365e-11
-0.218, 5.453e-11
-0.217, 5.473e-11
-0.216, 5.590e-11
-0.215, 5.736e-11
-0.214, 5.833e-11
-0.213, 5.911e-11
-0.212, 6.067e-11
-0.211, 6.116e-11
-0.210, 6.321e-11
-0.209, 6.360e-11
-0.208, 6.321e-11
-0.207, 6.447e-11
-0.206, 6.574e-11
-0.205, 6.623e-11
-0.204, 6.662e-11
-0.203, 6.798e-11
-0.202, 6.837e-11
-0.201, 6.925e-11
-0.200, 7.062e-11
-0.199, 7.101e-11
-0.198, 7.237e-11
-0.197, 7.383e-11
-0.196, 7.374e-11
-0.195, 7.442e-11
-0.194, 7.481e-11
-0.193, 7.598e-11
-0.192, 7.685e-11
-0.191, 7.783e-11
-0.190, 7.793e-11
-0.189, 7.939e-11
-0.188, 8.173e-11
-0.187, 8.241e-11
-0.186, 8.280e-11
-0.185, 8.309e-11
-0.184, 8.329e-11
-0.183, 8.485e-11
-0.182, 8.543e-11
-0.181, 8.631e-11
-0.180, 8.699e-11
-0.179, 8.748e-11
-0.178, 8.826e-11
-0.177, 8.894e-11
-0.176, 9.011e-11
-0.175, 9.089e-11
-0.174, 9.109e-11
-0.173, 9.040e-11
-0.172, 9.109e-11
-0.171, 9.118e-11
-0.170, 9.245e-11
-0.169, 9.382e-11
-0.168, 9.421e-11
-0.167, 9.567e-11
-0.166, 9.606e-11
-0.165, 9.694e-11
-0.164, 9.840e-11
-0.163, 9.869e-11
-0.162, 9.996e-11
-0.161, 9.918e-11
-0.160, 1.004e-10
-0.159, 1.006e-10
-0.158, 1.015e-10
-0.157, 1.025e-10
-0.156, 1.028e-10
-0.155, 1.033e-10
-0.154, 1.038e-10
-0.153, 1.035e-10
-0.152, 1.056e-10
-0.151, 1.058e-10
-0.150, 1.069e-10
-0.149, 1.074e-10
-0.148, 1.073e-10
-0.147, 1.072e-10
-0.146, 1.079e-10
-0.145, 1.088e-10
-0.144, 1.096e-10
-0.143, 1.101e-10
-0.142, 1.105e-10
-0.141, 1.116e-10
-0.140, 1.124e-10
-0.139, 1.131e-10
-0.138, 1.139e-10
-0.137, 1.140e-10
-0.136, 1.139e-10
-0.135, 1.134e-10
-0.134, 1.146e-10
-0.133, 1.157e-10
-0.132, 1.166e-10
-0.131, 1.164e-10
-0.130, 1.174e-10
-0.129, 1.178e-10
-0.128, 1.176e-10
-0.127, 1.190e-10
-0.126, 1.190e-10
-0.125, 1.189e-10
-0.124, 1.188e-10
-0.123, 1.188e-10
-0.122, 1.186e-10
-0.121, 1.199e-10
-0.120, 1.215e-10
-0.119, 1.209e-10
-0.118, 1.211e-10
-0.117, 1.221e-10
-0.116, 1.226e-10
-0.115, 1.226e-10
-0.114, 1.227e-10
-0.113, 1.236e-10
-0.112, 1.240e-10
-0.111, 1.235e-10
-0.110, 1.235e-10
-0.109, 1.239e-10
-0.108, 1.247e-10
-0.107, 1.259e-10
-0.106, 1.267e-10
-0.105, 1.266e-10
-0.104, 1.254e-10
-0.103, 1.264e-10
-0.102, 1.274e-10
-0.101, 1.274e-10
-0.100, 1.279e-10
-0.099, 1.286e-10
-0.098, 1.285e-10
-0.097, 1.282e-10
-0.096, 1.288e-10
-0.095, 1.295e-10
-0.094, 1.297e-10
-0.093, 1.294e-10
-0.092, 1.302e-10
-0.091, 1.303e-10
-0.090, 1.309e-10
-0.089, 1.312e-10
-0.088, 1.323e-10
-0.087, 1.328e-10
-0.086, 1.324e-10
-0.085, 1.332e-10
-0.084, 1.326e-10
-0.083, 1.320e-10
-0.082, 1.322e-10
-0.081, 1.332e-10
-0.080, 1.336e-10
-0.079, 1.342e-10
-0.078, 1.339e-10
-0.077, 1.349e-10
-0.076, 1.348e-10
-0.075, 1.350e-10
-0.074, 1.356e-10
-0.073, 1.366e-10
-0.072, 1.363e-10
-0.071, 1.364e-10
-0.070, 1.373e-10
-0.069, 1.383e-10
-0.068, 1.385e-10
-0.067, 1.382e-10
-0.066, 1.394e-10
-0.065, 1.390e-10
-0.064, 1.386e-10
-0.063, 1.390e-10
-0.062, 1.394e-10
-0.061, 1.401e-10
-0.060, 1.408e-10
-0.059, 1.407e-10
-0.058, 1.408e-10
-0.057, 1.418e-10
-0.056, 1.426e-10
-0.055, 1.427e-10
-0.054, 1.426e-10
-0.053, 1.444e-10
-0.052, 1.441e-10
-0.051, 1.448e-10
-0.050, 1.462e-10
-0.049, 1.469e-10
-0.048, 1.467e-10
-0.047, 1.473e-10
-0.046, 1.474e-10
-0.045, 1.473e-10
-0.044, 1.483e-10
-0.043, 1.496e-10
-0.042, 1.489e-10
-0.041, 1.487e-10
-0.040, 1.486e-10
-0.039, 1.479e-10
-0.038, 1.487e-10
-0.037, 1.490e-10
-0.036, 1.495e-10
-0.035, 1.506e-10
-0.034, 1.507e-10
-0.033, 1.516e-10
-0.032, 1.522e-10
-0.031, 1.518e-10
-0.030, 1.529e-10
-0.029, 1.534e-10
-0.028, 1.543e-10
-0.027, 1.545e-10
-0.026, 1.554e-10
-0.025, 1.555e-10
-0.024, 1.554e-10
-0.023, 1.564e-10
-0.022, 1.563e-10
-0.021, 1.569e-10
-0.020, 1.575e-10
-0.019, 1.583e-10
-0.018, 1.601e-10
-0.017, 1.606e-10
-0.016, 1.604e-10
-0.015, 1.617e-10
-0.014, 1.619e-10
-0.013, 1.635e-10
-0.012, 1.640e-10
-0.011, 1.634e-10
-0.010, 1.634e-10
-0.009, 1.648e-10
-0.008, 1.647e-10
-0.007, 1.668e-10
-0.006, 1.671e-10
-0.005, 1.668e-10
-0.004, 1.678e-10
-0.003, 1.675e-10
-0.002, 1.694e-10
-0.001, 1.703e-10
0.000, 1.708e-10
0.001, 1.724e-10
0.002, 1.745e-10
0.003, 1.741e-10
0.004, 1.749e-10
0.005, 1.760e-10
0.006, 1.774e-10
0.007, 1.791e-10
0.008, 1.797e-10
0.009, 1.814e-10
0.010, 1.829e-10
0.011, 1.851e-10
0.012, 1.866e-10
0.013, 1.891e-10
0.014, 1.908e-10
0.015, 1.921e-10
0.016, 1.935e-10
0.017, 1.956e-10
0.018, 1.972e-10
0.019, 1.980e-10
0.020, 2.006e-10
0.021, 2.044e-10
0.022, 2.057e-10
0.023, 2.081e-10
0.024, 2.085e-10
0.025, 2.091e-10
0.026, 2.127e-10
0.027, 2.155e-10
0.028, 2.182e-10
0.029, 2.203e-10
0.030, 2.211e-10
0.031, 2.231e-10
0.032, 2.259e-10
0.033, 2.289e-10
0.034, 2.313e-10
0.035, 2.351e-10
0.036, 2.358e-10
0.037, 2.388e-10
0.038, 2.413e-10
0.039, 2.434e-10
0.040, 2.464e-10
0.041, 2.480e-10
0.042, 2.513e-10
0.043, 2.533e-10
0.044, 2.555e-10
0.045, 2.589e-10
0.046, 2.615e-10
0.047, 2.647e-10
0.048, 2.676e-10
0.049, 2.697e-10
0.050, 2.731e-10
0.051, 2.765e-10
0.052, 2.797e-10
0.053, 2.828e-10
0.054, 2.862e-10
0.055, 2.899e-10
0.056, 2.935e-10
0.057, 2.957e-10
0.058, 2.999e-10
0.059, 3.032e-10
0.060, 3.069e-10
0.061, 3.103e-10
0.062, 3.145e-10
0.063, 3.167e-10
0.064, 3.202e-10
0.065, 3.240e-10
0.066, 3.279e-10
0.067, 3.321e-10
0.068, 3.364e-10
0.069, 3.403e-10
0.070, 3.445e-10
0.071, 3.474e-10
0.072, 3.521e-10
0.073, 3.556e-10
0.074, 3.595e-10
0.075, 3.637e-10
0.076, 3.668e-10
0.077, 3.717e-10
0.078, 3.767e-10
0.079, 3.814e-10
0.080, 3.862e-10
0.081, 3.908e-10
0.082, 3.950e-10
0.083, 4.005e-10
0.084, 4.052e-10
0.085, 4.101e-10
0.086, 4.173e-10
0.087, 4.222e-10
0.088, 4.285e-10
0.089, 4.355e-10
0.090, 4.451e-10
0.091, 4.536e-10
0.092, 4.657e-10
0.093, 4.794e-10
0.094, 4.939e-10
0.095, 5.094e-10
0.096, 5.233e-10
0.097, 5.374e-10
0.098, 5.519e-10
0.099, 5.658e-10
0.100, 5.810e-10
0.101, 5.971e-10
0.102, 6.126e-10
0.103, 6.275e-10
0.104, 6.406e-10
0.105, 6.521e-10
0.106, 6.629e-10
0.107, 6.740e-10
0.108, 6.845e-10
0.109, 6.943e-10
0.110, 7.022e-10
0.111, 7.086e-10
0.112, 7.113e-10
0.113, 7.112e-10
0.114, 7.095e-10
0.115, 7.043e-10
0.116, 6.971e-10
0.117, 6.886e-10
0.118, 6.759e-10
0.119, 6.630e-10
0.120, 6.507e-10
0.121, 6.362e-10
0.122, 6.218e-10
0.123, 6.100e-10
0.124, 5.972e-10
0.125, 5.832e-10
0.126, 5.705e-10
0.127, 5.587e-10
0.128, 5.487e-10
0.129, 5.380e-10
0.130, 5.275e-10
0.131, 5.202e-10
0.132, 5.131e-10
0.133, 5.049e-10
0.134, 4.985e-10
0.135, 4.923e-10
0.136, 4.860e-10
0.137, 4.798e-10
0.138, 4.735e-10
0.139, 4.672e-10
0.140, 4.636e-10
0.141, 4.597e-10
0.142, 4.570e-10
0.143, 4.570e-10
0.144, 4.530e-10
0.145, 4.507e-10
0.146, 4.478e-10
0.147, 4.458e-10
0.148, 4.445e-10
0.149, 4.411e-10
0.150, 4.392e-10
0.151, 4.382e-10
0.152, 4.367e-10
0.153, 4.358e-10
0.154, 4.341e-10
0.155, 4.346e-10
0.156, 4.331e-10
0.157, 4.344e-10
0.158, 4.332e-10
0.159, 4.340e-10
0.160, 4.318e-10
0.161, 4.308e-10
0.162, 4.305e-10
0.163, 4.271e-10
0.164, 4.251e-10
0.165, 4.268e-10
0.166, 4.260e-10
0.167, 4.244e-10
0.168, 4.250e-10
0.169, 4.262e-10
0.170, 4.249e-10
0.171, 4.228e-10
0.172, 4.236e-10
0.173, 4.202e-10
0.174, 4.192e-10
0.175, 4.186e-10
0.176, 4.178e-10
0.177, 4.172e-10
0.178, 4.186e-10
0.179, 4.139e-10
0.180, 4.134e-10
0.181, 4.107e-10
0.182, 4.095e-10
0.183, 4.095e-10
0.184, 4.049e-10
0.185, 4.046e-10
0.186, 4.046e-10
0.187, 4.016e-10
0.188, 3.993e-10
0.189, 3.976e-10
0.190, 3.957e-10
0.191, 3.942e-10
0.192, 3.909e-10
0.193, 3.895e-10
0.194, 3.900e-10
0.195, 3.872e-10
0.196, 3.853e-10
0.197, 3.852e-10
0.198, 3.840e-10
0.199, 3.820e-10
0.200, 3.802e-10
0.201, 3.788e-10
0.202, 3.758e-10
0.203, 3.733e-10
0.204, 3.733e-10
0.205, 3.712e-10
0.206, 3.700e-10
0.207, 3.680e-10
0.208, 3.682e-10
0.209, 3.665e-10
0.210, 3.631e-10
0.211, 3.626e-10
0.212, 3.616e-10
0.213, 3.602e-10
0.214, 3.578e-10
0.215, 3.569e-10
0.216, 3.545e-10
0.217, 3.549e-10
0.218, 3.521e-10
0.219, 3.511e-10
0.220, 3.505e-10
0.221, 3.491e-10
0.222, 3.472e-10
0.223, 3.471e-10
0.224, 3.468e-10
0.225, 3.448e-10
0.226, 3.436e-10
0.227, 3.410e-10
0.228, 3.410e-10
0.229, 3.415e-10
0.230, 3.418e-10
0.231, 3.403e-10
0.232, 3.415e-10
0.233, 3.403e-10
0.234, 3.394e-10
0.235, 3.378e-10
0.236, 3.386e-10
0.237, 3.380e-10
0.238, 3.373e-10
0.239, 3.357e-10
0.240, 3.346e-10
0.241, 3.329e-10
0.242, 3.339e-10
0.243, 3.336e-10
0.244, 3.335e-10
0.245, 3.350e-10
0.246, 3.340e-10
0.247, 3.331e-10
0.248, 3.320e-10
0.249, 3.307e-10
0.250, 3.294e-10
0.251, 3.294e-10
0.252, 3.303e-10
0.253, 3.295e-10
0.254, 3.291e-10
0.255, 3.291e-10
0.256, 3.286e-10
0.257, 3.288e-10
0.258, 3.278e-10
0.259, 3.281e-10
0.260, 3.287e-10
0.261, 3.274e-10
0.262, 3.273e-10
0.263, 3.277e-10
0.264, 3.279e-10
0.265, 3.275e-10
0.266, 3.275e-10
0.267, 3.258e-10
0.268, 3.244e-10
0.269, 3.249e-10
0.270, 3.258e-10
0.271, 3.253e-10
0.272, 3.266e-10
0.273, 3.269e-10
0.274, 3.262e-10
0.275, 3.256e-10
0.276, 3.257e-10
0.277, 3.250e-10
0.278, 3.252e-10
0.279, 3.258e-10
0.280, 3.265e-10
0.281, 3.256e-10
0.282, 3.260e-10
0.283, 3.267e-10
0.284, 3.265e-10
0.285, 3.265e-10
0.286, 3.256e-10
0.287, 3.254e-10
0.288, 3.247e-10
0.289, 3.254e-10
0.290, 3.246e-10
0.291, 3.244e-10
0.292, 3.250e-10
0.293, 3.256e-10
0.294, 3.261e-10
0.295, 3.259e-10
0.296, 3.268e-10
0.297, 3.273e-10
0.298, 3.260e-10
0.299, 3.263e-10
0.300, 3.286e-10
0.301, 3.303e-10
0.302, 3.306e-10
0.303, 3.308e-10
0.304, 3.305e-10
0.305, 3.298e-10
0.306, 3.291e-10
0.307, 3.294e-10
0.308, 3.307e-10
0.309, 3.301e-10
0.310, 3.313e-10
0.311, 3.298e-10
0.312, 3.280e-10
0.313, 3.299e-10
0.314, 3.322e-10
0.315, 3.357e-10
0.316, 3.392e-10
0.317, 3.426e-10
0.318, 3.443e-10
0.319, 3.441e-10
0.320, 3.403e-10
0.321, 3.342e-10
0.322, 3.299e-10
0.323, 3.322e-10
0.324, 3.361e-10
0.325, 3.366e-10
0.326, 3.343e-10
0.327, 3.330e-10
0.328, 3.318e-10
0.329, 3.324e-10
0.330, 3.318e-10
0.331, 3.320e-10
0.332, 3.307e-10
0.333, 3.296e-10
0.334, 3.289e-10
0.335, 3.316e-10
0.336, 3.320e-10
0.337, 3.316e-10
0.338, 3.312e-10
0.339, 3.310e-10
0.340, 3.340e-10
0.341, 3.334e-10
0.342, 3.325e-10
0.343, 3.328e-10
0.344, 3.336e-10
0.345, 3.336e-10
0.346, 3.346e-10
0.347, 3.317e-10
0.348, 3.346e-10
0.349, 3.363e-10
0.350, 3.364e-10
0.351, 3.346e-10
0.352, 3.338e-10
0.353, 3.339e-10
0.354, 3.366e-10
0.355, 3.372e-10
0.356, 3.370e-10
0.357, 3.375e-10
0.358, 3.381e-10
0.359, 3.393e-10
0.360, 3.385e-10
0.361, 3.386e-10
0.362, 3.383e-10
0.363, 3.401e-10
0.364, 3.401e-10
0.365, 3.411e-10
0.366, 3.422e-10
0.367, 3.417e-10
0.368, 3.408e-10
0.369, 3.407e-10
0.370, 3.412e-10
0.371, 3.409e-10
0.372, 3.417e-10
0.373, 3.424e-10
0.374, 3.434e-10
0.375, 3.434e-10
0.376, 3.434e-10
0.377, 3.444e-10
0.378, 3.443e-10
0.379, 3.441e-10
0.380, 3.441e-10
0.381, 3.432e-10
0.382, 3.433e-10
0.383, 3.457e-10
0.384, 3.447e-10
0.385, 3.450e-10
0.386, 3.451e-10
0.387, 3.455e-10
0.388, 3.454e-10
0.389, 3.469e-10
0.390, 3.461e-10
0.391, 3.462e-10
0.392, 3.476e-10
0.393, 3.482e-10
0.394, 3.488e-10
0.395, 3.499e-10
0.396, 3.503e-10
0.397, 3.502e-10
0.398, 3.500e-10
0.399, 3.506e-10
0.400, 3.506e-10
0.401, 3.524e-10
0.402, 3.523e-10
0.403, 3.536e-10
0.404, 3.531e-10
0.405, 3.539e-10
0.406, 3.551e-10
0.407, 3.542e-10
0.408, 3.540e-10
0.409, 3.542e-10
0.410, 3.538e-10
0.411, 3.527e-10
0.412, 3.532e-10
0.413, 3.529e-10
0.414, 3.545e-10
0.415, 3.556e-10
0.416, 3.557e-10
0.417, 3.558e-10
0.418, 3.568e-10
0.419, 3.576e-10
0.420, 3.568e-10
0.421, 3.560e-10
0.422, 3.565e-10
0.423, 3.565e-10
0.424, 3.585e-10
0.425, 3.592e-10
0.426, 3.596e-10
0.427, 3.595e-10
0.428, 3.597e-10
0.429, 3.597e-10
0.430, 3.595e-10
0.431, 3.605e-10
0.432, 3.608e-10
0.433, 3.616e-10
0.434, 3.610e-10
0.435, 3.606e-10
0.436, 3.619e-10
0.437, 3.611e-10
0.438, 3.609e-10
0.439, 3.603e-10
0.440, 3.613e-10
0.441, 3.616e-10
0.442, 3.624e-10
0.443, 3.623e-10
0.444, 3.626e-10
0.445, 3.625e-10
0.446, 3.636e-10
0.447, 3.653e-10
0.448, 3.651e-10
0.449, 3.649e-10
0.450, 3.656e-10
0.451, 3.652e-10
0.452, 3.656e-10
0.453, 3.658e-10
0.454, 3.659e-10
0.455, 3.648e-10
0.456, 3.646e-10
0.457, 3.658e-10
0.458, 3.659e-10
0.459, 3.664e-10
0.460, 3.660e-10
0.461, 3.669e-10
0.462, 3.680e-10
0.463, 3.681e-10
0.464, 3.685e-10
0.465, 3.698e-10
0.466, 3.695e-10
0.467, 3.688e-10
0.468, 3.689e-10
0.469, 3.699e-10
0.470, 3.711e-10
0.471, 3.719e-10
0.472, 3.710e-10
0.473, 3.710e-10
0.474, 3.713e-10
0.475, 3.725e-10
0.476, 3.723e-10
0.477, 3.730e-10
0.478, 3.736e-10
0.479, 3.751e-10
0.480, 3.759e-10
0.481, 3.768e-10
0.482, 3.769e-10
0.483, 3.767e-10
0.484, 3.760e-10
0.485, 3.755e-10
0.486, 3.774e-10
0.487, 3.775e-10
0.488, 3.775e-10
0.489, 3.776e-10
0.490, 3.781e-10
0.491, 3.781e-10
0.492, 3.786e-10
0.493, 3.789e-10
0.494, 3.802e-10
0.495, 3.809e-10
0.496, 3.805e-10
0.497, 3.803e-10
0.498, 3.816e-10
0.499, 3.811e-10
0.500, 3.778e-10
0.499, 3.606e-10
0.498, 3.488e-10
0.497, 3.408e-10
0.496, 3.334e-10
0.495, 3.285e-10
0.494, 3.226e-10
0.493, 3.188e-10
0.492, 3.145e-10
0.491, 3.086e-10
0.490, 3.047e-10
0.489, 3.011e-10
0.488, 2.974e-10
0.487, 2.942e-10
0.486, 2.915e-10
0.485, 2.886e-10
0.484, 2.861e-10
0.483, 2.828e-10
0.482, 2.799e-10
0.481, 2.767e-10
0.480, 2.732e-10
0.479, 2.706e-10
0.478, 2.682e-10
0.477, 2.658e-10
0.476, 2.618e-10
0.475, 2.604e-10
0.474, 2.574e-10
0.473, 2.559e-10
0.472, 2.545e-10
0.471, 2.516e-10
0.470, 2.500e-10
0.469, 2.477e-10
0.468, 2.458e-10
0.467, 2.440e-10
0.466, 2.424e-10
0.465, 2.396e-10
0.464, 2.386e-10
0.463, 2.359e-10
0.462, 2.341e-10
0.461, 2.315e-10
0.460, 2.297e-10
0.459, 2.277e-10
0.458, 2.250e-10
0.457, 2.236e-10
0.456, 2.236e-10
0.455, 2.206e-10
0.454, 2.201e-10
0.453, 2.170e-10
0.452, 2.164e-10
0.451, 2.145e-10
0.450, 2.127e-10
0.449, 2.115e-10
0.448, 2.095e-10
0.447, 2.086e-10
0.446, 2.059e-10
0.445, 2.040e-10
0.444, 2.036e-10
0.443, 2.015e-10
0.442, 1.995e-10
0.441, 1.988e-10
0.440, 1.973e-10
0.439, 1.974e-10
0.438, 1.954e-10
0.437, 1.932e-10
0.436, 1.923e-10
0.435, 1.910e-10
0.434, 1.902e-10
0.433, 1.888e-10
0.432, 1.873e-10
0.431, 1.860e-10
0.430, 1.848e-10
0.429, 1.838e-10
0.428, 1.821e-10
0.427, 1.806e-10
0.426, 1.795e-10
0.425, 1.774e-10
0.424, 1.762e-10
0.423, 1.754e-10
0.422, 1.730e-10
0.421, 1.710e-10
0.420, 1.699e-10
0.419, 1.692e-10
0.418, 1.687e-10
0.417, 1.682e-10
0.416, 1.669e-10
0.415, 1.661e-10
0.414, 1.652e-10
0.413, 1.640e-10
0.412, 1.636e-10
0.411, 1.614e-10
0.410, 1.608e-10
0.409, 1.609e-10
0.408, 1.588e-10
0.407, 1.571e-10
0.406, 1.557e-10
0.405, 1.545e-10
0.404, 1.535e-10
0.403, 1.527e-10
0.402, 1.517e-10
0.401, 1.505e-10
0.400, 1.492e-10
0.399, 1.477e-10
0.398, 1.462e-10
0.397, 1.449e-10
0.396, 1.445e-10
0.395, 1.425e-10
0.394, 1.420e-10
0.393, 1.411e-10
0.392, 1.399e-10
0.391, 1.387e-10
0.390, 1.378e-10
0.389, 1.377e-10
0.388, 1.373e-10
0.387, 1.355e-10
0.386, 1.345e-10
0.385, 1.340e-10
0.384, 1.333e-10
0.383, 1.323e-10
0.382, 1.314e-10
0.381, 1.307e-10
0.380, 1.293e-10
0.379, 1.279e-10
0.378, 1.262e-10
0.377, 1.251e-10
0.376, 1.246e-10
0.375, 1.236e-10
0.374, 1.235e-10
0.373, 1.230e-10
0.372, 1.217e-10
0.371, 1.207e-10
0.370, 1.199e-10
0.369, 1.178e-10
0.368, 1.158e-10
0.367, 1.151e-10
0.366, 1.147e-10
0.365, 1.130e-10
0.364, 1.119e-10
0.363, 1.117e-10
0.362, 1.104e-10
0.361, 1.100e-10
0.360, 1.093e-10
0.359, 1.075e-10
0.358, 1.064e-10
0.357, 1.062e-10
0.356, 1.051e-10
0.355, 1.041e-10
0.354, 1.041e-10
0.353, 1.028e-10
0.352, 1.009e-10
0.351, 9.957e-11
0.350, 9.928e-11
0.349, 9.820e-11
0.348, 9.596e-11
0.347, 9.479e-11
0.346, 9.362e-11
0.345, 9.391e-11
0.344, 9.284e-11
0.343, 9.157e-11
0.342, 9.099e-11
0.341, 8.962e-11
0.340, 8.894e-11
0.339, 8.855e-11
0.338, 8.680e-11
0.337, 8.543e-11
0.336, 8.504e-11
0.335, 8.300e-11
0.334, 8.222e-11
0.333, 8.036e-11
0.332, 7.988e-11
0.331, 7.997e-11
0.330, 7.822e-11
0.329, 7.773e-11
0.328, 7.734e-11
0.327, 7.539e-11
0.326, 7.471e-11
0.325, 7.315e-11
0.324, 7.110e-11
0.323, 6.993e-11
0.322, 6.915e-11
0.321, 6.818e-11
0.320, 6.837e-11
0.319, 6.789e-11
0.318, 6.642e-11
0.317, 6.555e-11
0.316, 6.438e-11
0.315, 6.379e-11
0.314, 6.233e-11
0.313, 6.252e-11
0.312, 6.077e-11
0.311, 5.970e-11
0.310, 5.882e-11
0.309, 5.804e-11
0.308, 5.794e-11
0.307, 5.668e-11
0.306, 5.590e-11
0.305, 5.570e-11
0.304, 5.521e-11
0.303, 5.336e-11
0.302, 5.307e-11
0.301, 5.326e-11
0.300, 5.063e-11
0.299, 4.995e-11
0.298, 4.878e-11
0.297, 4.829e-11
0.296, 4.781e-11
0.295, 4.693e-11
0.294, 4.644e-11
0.293, 4.625e-11
0.292, 4.498e-11
0.291, 4.352e-11
0.290, 4.254e-11
0.289, 4.215e-11
0.288, 4.030e-11
0.287, 3.913e-11
0.286, 3.835e-11
0.285, 3.776e-11
0.284, 3.718e-11
0.283, 3.650e-11
0.282, 3.533e-11
0.281, 3.533e-11
0.280, 3.416e-11
0.279, 3.348e-11
0.278, 3.231e-11
0.277, 3.143e-11
0.276, 3.114e-11
0.275, 3.094e-11
0.274, 2.977e-11
0.273, 2.870e-11
0.272, 2.704e-11
0.271, 2.597e-11
0.270, 2.548e-11
0.269, 2.470e-11
0.268, 2.519e-11
0.267, 2.392e-11
0.266, 2.197e-11
0.265, 2.256e-11
0.264, 2.187e-11
0.263, 2.110e-11
0.262, 1.963e-11
0.261, 1.885e-11
0.260, 1.700e-11
0.259, 1.720e-11
0.258, 1.612e-11
0.257, 1.534e-11
0.256, 1.544e-11
0.255, 1.515e-11
0.254, 1.310e-11
0.253, 1.242e-11
0.252, 1.164e-11
0.251, 1.096e-11
0.250, 9.105e-12
0.249, 8.910e-12
0.248, 8.520e-12
0.247, 7.448e-12
0.246, 5.790e-12
0.245, 5.206e-12
0.244, 4.621e-12
0.243, 4.426e-12
0.242, 3.743e-12
0.241, 2.574e-12
0.240, 1.111e-12
0.239, -2.534e-13
0.238, -2.534e-13
0.237, -9.358e-13
0.236, -7.408e-13
0.235, -2.203e-12
0.234, -2.593e-12
0.233, -2.496e-12
0.232, -3.958e-12
0.231, -4.348e-12
0.230, -4.933e-12
0.229, -6.590e-12
0.228, -6.297e-12
0.227, -7.760e-12
0.226, -8.637e-12
0.225, -9.417e-12
0.224, -1.127e-11
0.223, -1.234e-11
0.222, -1.185e-11
0.221, -1.312e-11
0.220, -1.351e-11
0.219, -1.371e-11
0.218, -1.458e-11
0.217, -1.546e-11
0.216, -1.575e-11
0.215, -1.692e-11
0.214, -1.731e-11
0.213, -1.761e-11
0.212, -1.887e-11
0.211, -2.082e-11
0.210, -2.092e-11
0.209, -2.238e-11
0.208, -2.258e-11
0.207, -2.472e-11
0.206, -2.492e-11
0.205, -2.492e-11
0.204, -2.609e-11
0.203, -2.687e-11
0.202, -2.726e-11
0.201, -2.687e-11
0.200, -2.833e-11
0.199, -2.979e-11
0.198, -2.960e-11
0.197, -2.950e-11
0.196, -3.047e-11
0.195, -3.203e-11
0.194, -3.291e-11
0.193, -3.388e-11
0.192, -3.418e-11
0.191, -3.535e-11
0.190, -3.603e-11
0.189, -3.661e-11
0.188, -3.642e-11
0.187, -3.778e-11
0.186, -3.759e-11
0.185, -3.934e-11
0.184, -3.973e-11
0.183, -4.090e-11
0.182, -4.178e-11
0.181, -4.198e-11
0.180, -4.227e-11
0.179, -4.295e-11
0.178, -4.363e-11
0.177, -4.393e-11
0.176, -4.373e-11
0.175, -4.471e-11
0.174, -4.675e-11
0.173, -4.743e-11
0.172, -4.704e-11
0.171, -4.782e-11
0.170, -4.812e-11
0.169, -4.899e-11
0.168, -4.987e-11
0.167, -5.143e-11
0.166, -5.172e-11
0.165, -5.299e-11
0.164, -5.367e-11
0.163, -5.377e-11
0.162, -5.484e-11
0.161, -5.514e-11
0.160, -5.465e-11
0.159, -5.543e-11
0.158, -5.660e-11
0.157, -5.679e-11
0.156, -5.660e-11
0.155, -5.796e-11
0.154, -5.952e-11
0.153, -5.884e-11
0.152, -6.030e-11
0.151, -6.079e-11
0.150, -6.108e-11
0.149, -6.176e-11
0.148, -6.274e-11
0.147, -6.352e-11
0.146, -6.410e-11
0.145, -6.547e-11
0.144, -6.508e-11
0.143, -6.576e-11
0.142, -6.693e-11
0.141, -6.722e-11
0.140, -6.722e-11
0.139, -6.820e-11
0.138, -6.937e-11
0.137, -6.917e-11
0.136, -6.986e-11
0.135, -7.025e-11
0.134, -7.083e-11
0.133, -7.161e-11
0.132, -7.268e-11
0.131, -7.346e-11
0.130, -7.405e-11
0.129, -7.444e-11
0.128, -7.453e-11
0.127, -7.463e-11
0.126, -7.551e-11
0.125, -7.648e-11
0.124, -7.736e-11
0.123, -7.785e-11
0.122, -7.902e-11
0.121, -7.902e-11
0.120, -7.960e-11
0.119, -7.970e-11
0.118, -8.068e-11
0.117, -8.087e-11
0.116, -8.194e-11
0.115, -8.214e-11
0.114, -8.311e-11
0.113, -8.341e-11
0.112, -8.516e-11
0.111, -8.545e-11
0.110, -8.516e-11
0.109, -8.633e-11
0.108, -8.740e-11
0.107, -8.867e-11
0.106, -8.896e-11
0.105, -9.033e-11
0.104, -9.062e-11
0.103, -9.179e-11
0.102, -9.208e-11
0.101, -9.228e-11
0.100, -9.296e-11
0.099, -9.335e-11
0.098, -9.432e-11
0.097, -9.481e-11
0.096, -9.549e-11
0.095, -9.598e-11
0.094, -9.647e-11
0.093, -9.618e-11
0.092, -9.764e-11
0.091, -9.861e-11
0.090, -9.890e-11
0.089, -9.978e-11
0.088, -1.006e-10
0.087, -1.027e-10
0.086, -1.029e-10
0.085, -1.028e-10
0.084, -1.035e-10
0.083, -1.046e-10
0.082, -1.043e-10
0.081, -1.060e-10
0.080, -1.066e-10
0.079, -1.068e-10
0.078, -1.074e-10
0.077, -1.089e-10
0.076, -1.096e-10
0.075, -1.114e-10
0.074, -1.120e-10
0.073, -1.126e-10
0.072, -1.124e-10
0.071, -1.139e-10
0.070, -1.139e-10
0.069, -1.148e-10
0.068, -1.156e-10
0.067, -1.173e-10
0.066, -1.174e-10
0.065, -1.191e-10
0.064, -1.190e-10
0.063, -1.197e-10
0.062, -1.209e-10
0.061, -1.212e-10
0.060, -1.229e-10
0.059, -1.238e-10
0.058, -1.250e-10
0.057, -1.259e-10
0.056, -1.260e-10
0.055, -1.265e-10
0.054, -1.277e-10
0.053, -1.278e-10
0.052, -1.287e-10
0.051, -1.302e-10
0.050, -1.314e-10
0.049, -1.324e-10
0.048, -1.333e-10
0.047, -1.339e-10
0.046, -1.351e-10
0.045, -1.358e-10
0.044, -1.357e-10
0.043, -1.372e-10
0.042, -1.383e-10
0.041, -1.382e-10
0.040, -1.394e-10
0.039, -1.409e-10
0.038, -1.413e-10
0.037, -1.423e-10
0.036, -1.436e-10
0.035, -1.440e-10
0.034, -1.448e-10
0.033, -1.463e-10
0.032, -1.479e-10
0.031, -1.494e-10
0.030, -1.493e-10
0.029, -1.509e-10
0.028, -1.525e-10
0.027, -1.537e-10
0.026, -1.545e-10
0.025, -1.555e-10
0.024, -1.568e-10
0.023, -1.589e-10
0.022, -1.591e-10
0.021, -1.594e-10
0.020, -1.612e-10
0.019, -1.627e-10
0.018, -1.626e-10
0.017, -1.629e-10
0.016, -1.638e-10
0.015, -1.640e-10
0.014, -1.650e-10
0.013, -1.661e-10
0.012, -1.672e-10
0.011, -1.676e-10
0.010, -1.687e-10
0.009, -1.697e-10
0.008, -1.714e-10
0.007, -1.734e-10
0.006, -1.738e-10
0.005, -1.739e-10
0.004, -1.750e-10
0.003, -1.752e-10
0.002, -1.767e-10
0.001, -1.775e-10
-0.000, -1.792e-10
-0.001, -1.807e-10
-0.002, -1.813e-10
-0.003, -1.821e-10
-0.004, -1.825e-10
-0.005, -1.835e-10
-0.006, -1.843e-10
-0.007, -1.853e-10
-0.008, -1.865e-10
-0.009, -1.876e-10
-0.010, -1.881e-10
-0.011, -1.896e-10
-0.012, -1.901e-10
-0.013, -1.908e-10
-0.014, -1.918e-10
-0.015, -1.924e-10
-0.016, -1.931e-10
-0.017, -1.938e-10
-0.018, -1.948e-10
-0.019, -1.961e-10
-0.020, -1.965e-10
-0.021, -1.978e-10
-0.022, -1.986e-10
-0.023, -1.996e-10
-0.024, -2.001e-10
-0.025, -2.012e-10
-0.026, -2.022e-10
-0.027, -2.030e-10
-0.028, -2.039e-10
-0.029, -2.037e-10
-0.030, -2.048e-10
-0.031, -2.052e-10
-0.032, -2.049e-10
-0.033, -2.068e-10
-0.034, -2.075e-10
-0.035, -2.086e-10
-0.036, -2.094e-10
-0.037, -2.094e-10
-0.038, -2.109e-10
-0.039, -2.115e-10
-0.040, -2.127e-10
-0.041, -2.129e-10
-0.042, -2.129e-10
-0.043, -2.150e-10
-0.044, -2.162e-10
-0.045, -2.170e-10
-0.046, -2.181e-10
-0.047, -2.190e-10
-0.048, -2.198e-10
-0.049, -2.214e-10
-0.050, -2.220e-10
-0.051, -2.221e-10
-0.052, -2.228e-10
-0.053, -2.245e-10
-0.054, -2.260e-10
-0.055, -2.286e-10
-0.056, -2.346e-10
-0.057, -2.373e-10
-0.058, -2.402e-10
-0.059, -2.437e-10
-0.060, -2.493e-10
-0.061, -2.497e-10
-0.062, -2.429e-10
-0.063, -2.427e-10
-0.064, -2.431e-10
-0.065, -2.419e-10
-0.066, -2.440e-10
-0.067, -2.510e-10
-0.068, -2.600e-10
-0.069, -2.589e-10
-0.070, -2.520e-10
-0.071, -2.549e-10
-0.072, -2.628e-10
-0.073, -2.697e-10
-0.074, -2.621e-10
-0.075, -2.648e-10
-0.076, -2.577e-10
-0.077, -2.690e-10
-0.078, -2.851e-10
-0.079, -2.545e-10
-0.080, -2.406e-10
-0.081, -2.424e-10
-0.082, -2.511e-10
-0.083, -2.602e-10
-0.084, -2.503e-10
-0.085, -2.440e-10
-0.086, -2.464e-10
-0.087, -2.559e-10
-0.088, -2.405e-10
-0.089, -2.432e-10
-0.090, -2.471e-10
-0.091, -2.404e-10
-0.092, -2.393e-10
-0.093, -2.381e-10
-0.094, -2.384e-10
-0.095, -2.387e-10
-0.096, -2.395e-10
-0.097, -2.411e-10
-0.098, -2.413e-10
-0.099, -2.419e-10
-0.100, -2.427e-10
-0.101, -2.441e-10
-0.102, -2.442e-10
-0.103, -2.486e-10
-0.104, -2.584e-10
-0.105, -2.532e-10
-0.106, -2.608e-10
-0.107, -2.636e-10
-0.108, -2.519e-10
-0.109, -2.509e-10
-0.110, -2.489e-10
-0.111, -2.490e-10
-0.112, -2.496e-10
-0.113, -2.502e-10
-0.114, -2.503e-10
-0.115, -2.513e-10
-0.116, -2.502e-10
-0.117, -2.514e-10
-0.118, -2.520e-10
-0.119, -2.566e-10
-0.120, -2.631e-10
-0.121, -2.558e-10
-0.122, -2.570e-10
-0.123, -2.573e-10
-0.124, -2.579e-10
-0.125, -2.610e-10
-0.126, -2.590e-10
-0.127, -2.574e-10
-0.128, -2.571e-10
-0.129, -2.577e-10
-0.130, -2.591e-10
-0.131, -2.704e-10
-0.132, -2.769e-10
-0.133, -2.620e-10
-0.134, -2.649e-10
-0.135, -2.706e-10
-0.136, -2.890e-10
-0.137, -2.724e-10
-0.138, -2.656e-10
-0.139, -2.672e-10
-0.140, -2.670e-10
-0.141, -2.669e-10
-0.142, -2.699e-10
-0.143, -2.705e-10
-0.144, -2.715e-10
-0.145, -2.850e-10
-0.146, -2.741e-10
-0.147, -2.722e-10
-0.148, -2.720e-10
-0.149, -2.777e-10
-0.150, -2.821e-10
-0.151, -2.761e-10
-0.152, -2.733e-10
-0.153, -2.740e-10
-0.154, -2.734e-10
-0.155, -2.756e-10
-0.156, -2.760e-10
-0.157, -2.758e-10
-0.158, -2.780e-10
-0.159, -2.777e-10
-0.160, -2.784e-10
-0.161, -2.790e-10
-0.162, -2.877e-10
-0.163, -2.836e-10
-0.164, -2.856e-10
-0.165, -2.830e-10
-0.166, -2.882e-10
-0.167, -3.020e-10
-0.168, -2.889e-10
-0.169, -2.851e-10
-0.170, -2.863e-10
-0.171, -2.880e-10
-0.172, -2.868e-10
-0.173, -2.871e-10
-0.174, -2.877e-10
-0.175, -2.946e-10
-0.176, -2.906e-10
-0.177, -2.916e-10
-0.178, -2.916e-10
-0.179, -2.916e-10
-0.180, -2.927e-10
-0.181, -2.935e-10
-0.182, -2.941e-10
-0.183, -2.989e-10
-0.184, -2.954e-10
-0.185, -2.957e-10
-0.186, -2.959e-10
-0.187, -2.968e-10
-0.188, -2.979e-10
-0.189, -3.001e-10
-0.190, -3.044e-10
-0.191, -3.024e-10
-0.192, -3.024e-10
-0.193, -3.035e-10
-0.194, -3.059e-10
-0.195, -3.090e-10
-0.196, -3.069e-10
-0.197, -3.072e-10
-0.198, -3.076e-10
-0.199, -3.072e-10
-0.200, -3.063e-10
-0.201, -3.077e-10
-0.202, -3.083e-10
-0.203, -3.082e-10
-0.204, -3.089e-10
-0.205, -3.097e-10
-0.206, -3.104e-10
-0.207, -3.127e-10
-0.208, -3.128e-10
-0.209, -3.129e-10
-0.210, -3.181e-10
-0.211, -3.150e-10
-0.212, -3.147e-10
-0.213, -3.150e-10
-0.214, -3.155e-10
-0.215, -3.156e-10
-0.216, -3.157e-10
-0.217, -3.182e-10
-0.218, -3.181e-10
-0.219, -3.194e-10
-0.220, -3.271e-10
-0.221, -3.238e-10
-0.222, -3.226e-10
-0.223, -3.230e-10
-0.224, -3.221e-10
-0.225, -3.224e-10
-0.226, -3.242e-10
-0.227, -3.252e-10
-0.228, -3.255e-10
-0.229, -3.275e-10
-0.230, -3.261e-10
-0.231, -3.257e-10
-0.232, -3.261e-10
-0.233, -3.295e-10
-0.234, -3.323e-10
-0.235, -3.299e-10
-0.236, -3.300e-10
-0.237, -3.294e-10
-0.238, -3.306e-10
-0.239, -3.314e-10
-0.240, -3.311e-10
-0.241, -3.322e-10
-0.242, -3.333e-10
-0.243, -3.338e-10
-0.244, -3.344e-10
-0.245, -3.357e-10
-0.246, -3.370e-10
-0.247, -3.400e-10
-0.248, -3.397e-10
-0.249, -3.406e-10
-0.250, -3.405e-10
-0.251, -3.436e-10
-0.252, -3.431e-10
-0.253, -3.429e-10
-0.254, -3.430e-10
-0.255, -3.434e-10
-0.256, -3.439e-10
-0.257, -3.451e-10
-0.258, -3.456e-10
-0.259, -3.463e-10
-0.260, -3.480e-10
-0.261, -3.481e-10
-0.262, -3.499e-10
-0.263, -3.567e-10
-0.264, -3.544e-10
-0.265, -3.555e-10
-0.266, -3.529e-10
-0.267, -3.536e-10
-0.268, -3.544e-10
-0.269, -3.541e-10
-0.270, -3.547e-10
-0.271, -3.561e-10
-0.272, -3.567e-10
-0.273, -3.586e-10
-0.274, -3.588e-10
-0.275, -3.603e-10
-0.276, -3.614e-10
-0.277, -3.610e-10
-0.278, -3.613e-10
-0.279, -3.640e-10
-0.280, -3.647e-10
-0.281, -3.656e-10
-0.282, -3.656e-10
-0.283, -3.667e-10
-0.284, -3.697e-10
-0.285, -3.713e-10
-0.286, -3.702e-10
-0.287, -3.720e-10
-0.288, -3.723e-10
-0.289, -3.728e-10
-0.290, -3.735e-10
-0.291, -3.754e-10
-0.292, -3.781e-10
-0.293, -3.782e-10
-0.294, -3.776e-10
-0.295, -3.786e-10
-0.296, -3.779e-10
-0.297, -3.794e-10
-0.298, -3.789e-10
-0.299, -3.802e-10
-0.300, -3.821e-10
-0.301, -3.836e-10
-0.302, -3.851e-10
-0.303, -3.855e-10
-0.304, -3.858e-10
-0.305, -3.872e-10
-0.306, -3.889e-10
-0.307, -3.912e-10
-0.308, -3.908e-10
-0.309, -3.914e-10
-0.310, -3.927e-10
-0.311, -4.050e-10
-0.312, -3.982e-10
-0.313, -3.959e-10
-0.314, -3.963e-10
-0.315, -3.975e-10
-0.316, -3.998e-10
-0.317, -3.995e-10
-0.318, -4.015e-10
-0.319, -4.019e-10
-0.320, -4.029e-10
-0.321, -4.042e-10
-0.322, -4.060e-10
-0.323, -4.070e-10
-0.324, -4.100e-10
-0.325, -4.103e-10
-0.326, -4.105e-10
-0.327, -4.146e-10
-0.328, -4.137e-10
-0.329, -4.141e-10
-0.330, -4.153e-10
-0.331, -4.168e-10
-0.332, -4.180e-10
-0.333, -4.194e-10
-0.334, -4.201e-10
-0.335, -4.210e-10
-0.336, -4.247e-10
-0.337, -4.257e-10
-0.338, -4.251e-10
-0.339, -4.261e-10
-0.340, -4.270e-10
-0.341, -4.287e-10
-0.342, -4.295e-10
-0.343, -4.303e-10
-0.344, -4.314e-10
-0.345, -4.327e-10
-0.346, -4.343e-10
-0.347, -4.361e-10
-0.348, -4.373e-10
-0.349, -4.372e-10
-0.350, -4.394e-10
-0.351, -4.410e-10
-0.352, -4.423e-10
-0.353, -4.442e-10
-0.354, -4.460e-10
-0.355, -4.472e-10
-0.356, -4.486e-10
-0.357, -4.497e-10
-0.358, -4.510e-10
-0.359, -4.519e-10
-0.360, -4.539e-10
-0.361, -4.546e-10
-0.362, -4.563e-10
-0.363, -4.576e-10
-0.364, -4.599e-10
-0.365, -4.610e-10
-0.366, -4.626e-10
-0.367, -4.636e-10
-0.368, -4.654e-10
-0.369, -4.661e-10
-0.370, -4.680e-10
-0.371, -4.705e-10
-0.372, -4.722e-10
-0.373, -4.737e-10
-0.374, -4.758e-10
-0.375, -4.787e-10
-0.376, -4.801e-10
-0.377, -4.807e-10
-0.378, -4.815e-10
-0.379, -4.835e-10
-0.380, -4.859e-10
-0.381, -4.876e-10
-0.382, -4.895e-10
-0.383, -4.924e-10
-0.384, -4.947e-10
-0.385, -4.969e-10
-0.386, -4.977e-10
-0.387, -4.987e-10
-0.388, -5.018e-10
-0.389, -5.035e-10
-0.390, -5.054e-10
-0.391, -5.080e-10
-0.392, -5.113e-10
-0.393, -5.135e-10
-0.394, -5.155e-10
-0.395, -5.179e-10
-0.396, -5.206e-10
-0.397, -5.217e-10
-0.398, -5.243e-10
-0.399, -5.256e-10
-0.400, -5.291e-10
-0.401, -5.335e-10
-0.402, -5.329e-10
-0.403, -5.350e-10
-0.404, -5.380e-10
-0.405, -5.405e-10
-0.406, -5.441e-10
-0.407, -5.459e-10
-0.408, -5.481e-10
-0.409, -5.517e-10
-0.410, -5.536e-10
-0.411, -5.561e-10
-0.412, -5.586e-10
-0.413, -5.601e-10
-0.414, -5.622e-10
-0.415, -5.645e-10
-0.416, -5.656e-10
-0.417, -5.684e-10
-0.418, -5.707e-10
-0.419, -5.722e-10
-0.420, -5.746e-10
-0.421, -5.776e-10
-0.422, -5.787e-10
-0.423, -5.820e-10
-0.424, -5.835e-10
-0.425, -5.853e-10
-0.426, -5.868e-10
-0.427, -5.900e-10
-0.428, -5.922e-10
-0.429, -5.943e-10
-0.430, -5.977e-10
-0.431, -6.004e-10
-0.432, -6.031e-10
-0.433, -6.059e-10
-0.434, -6.086e-10
-0.435, -6.120e-10
-0.436, -6.137e-10
-0.437, -6.163e-10
-0.438, -6.194e-10
-0.439, -6.225e-10
-0.440, -6.250e-10
-0.441, -6.275e-10
-0.442, -6.301e-10
-0.443, -6.331e-10
-0.444, -6.355e-10
-0.445, -6.384e-10
-0.446, -6.418e-10
-0.447, -6.461e-10
-0.448, -6.489e-10
-0.449, -6.520e-10
-0.450, -6.553e-10
-0.451, -6.573e-10
-0.452, -6.599e-10
-0.453, -6.623e-10
-0.454, -6.657e-10
-0.455, -6.696e-10
-0.456, -6.727e-10
-0.457, -6.758e-10
-0.458, -6.796e-10
-0.459, -6.838e-10
-0.460, -6.858e-10
-0.461, -6.887e-10
-0.462, -6.912e-10
-0.463, -6.943e-10
-0.464, -6.977e-10
-0.465, -7.016e-10
-0.466, -7.049e-10
-0.467, -7.078e-10
-0.468, -7.106e-10
-0.469, -7.133e-10
-0.470, -7.161e-10
-0.471, -7.191e-10
-0.472, -7.224e-10
-0.473, -7.259e-10
-0.474, -7.290e-10
-0.475, -7.328e-10
-0.476, -7.367e-10
-0.477, -7.394e-10
-0.478, -7.425e-10
-0.479, -7.466e-10
-0.480, -7.499e-10
-0.481, -7.547e-10
-0.482, -7.583e-10
-0.483, -7.605e-10
-0.484, -7.642e-10
-0.485, -7.691e-10
-0.486, -7.724e-10
-0.487, -7.761e-10
-0.488, -7.807e-10
-0.489, -7.850e-10
-0.490, -7.880e-10
-0.491, -7.909e-10
-0.492, -7.937e-10
-0.493, -7.978e-10
-0.494, -8.007e-10
-0.495, -8.042e-10
-0.496, -8.068e-10
-0.497, -8.090e-10
-0.498, -8.120e-10
-0.499, -8.147e-10
